timestamp,emg1,emg2,emg3,emg4,emg5,emg6,emg7,emg8
1509765196520744,2,24,-3,-16,0,-1,-7,-2
1509765196520744,2,-6,-9,4,2,-2,-2,0
1509765196521760,-3,-27,5,0,1,1,3,1
1509765196521760,-3,7,0,0,-5,-5,0,-1
1509765196525747,2,18,4,3,-5,1,-3,-2
1509765196525747,-7,9,5,0,2,2,-1,0
1509765196526250,-2,-20,-1,2,6,1,1,1
1509765196526250,0,-2,-3,-2,-2,0,3,-1
1509765196532783,-1,9,-9,1,-4,-6,-3,-4
1509765196532783,0,2,0,-5,-2,2,-3,-1
1509765196540792,-2,-20,-1,1,3,0,3,1
1509765196540792,-3,0,-3,-4,-4,-3,-1,-3
1509765196555808,0,15,1,0,-3,-2,-4,-2
1509765196555808,4,-2,-1,1,0,1,-2,0
1509765196562809,-5,-19,-1,-3,1,1,2,1
1509765196562809,-2,5,-5,-4,-3,-1,-2,-3
1509765196576815,2,10,1,-2,-4,-1,-1,-1
1509765196576815,-1,-2,4,-3,-1,-3,-3,-1
1509765196592852,-5,-11,11,22,1,-2,3,0
1509765196592852,-2,1,-12,-15,-1,-2,-1,-3
1509765196593839,-1,1,-4,-17,-6,-4,-3,-1
1509765196593839,2,1,7,16,5,6,-1,1
1509765196606847,4,-4,4,-20,-4,-2,-1,2
1509765196606847,0,3,-24,14,-2,-2,-1,0
1509765196629939,2,1,6,2,0,-2,-1,0
1509765196629939,-7,-18,-25,-8,-6,-4,-2,-1
1509765196654948,-1,27,6,12,-5,-4,1,-5
1509765196654948,3,34,10,-10,-5,-1,-4,-3
1509765196654948,-2,-26,-26,3,4,2,-3,-3
1509765196654948,-8,-38,-1,2,3,1,0,-1
1509765196655951,-1,-7,-3,-4,-5,-3,1,0
1509765196655951,0,20,3,1,-6,1,-3,-3
1509765196667958,4,13,7,-4,-4,-1,-3,0
1509765196667958,0,-18,-1,1,3,1,4,1
1509765196668959,-3,-11,-2,-5,-1,2,2,0
1509765196668959,1,16,4,14,-2,-8,-5,-4
1509765196673962,1,7,-10,-33,-6,-2,-4,-1
1509765196673962,2,-13,8,22,-5,-1,-1,3
1509765196689973,-1,-12,-11,-10,14,-1,2,1
1509765196689973,-14,9,-6,2,-5,-3,-5,-4
1509765196705001,-4,2,2,7,-1,-4,-2,-4
1509765196705001,-5,-22,-19,-17,-3,-3,2,-1
1509765196710989,4,8,2,16,-3,3,2,0
1509765196710989,4,5,11,-7,-1,1,-1,2
1509765196735105,0,1,-2,5,-1,-2,-3,-1
1509765196735105,-2,-10,-3,-5,2,1,3,1
1509765196736106,0,1,0,-1,-1,-1,0,0
1509765196736106,2,7,-8,-6,2,1,-1,-1
1509765196758121,-5,-1,25,6,-1,-2,0,-3
1509765196758121,0,-6,-8,-1,3,3,-1,-2
1509765196760123,-3,-3,-13,-8,-5,-3,-5,-2
1509765196760123,-2,-1,-2,-3,-4,-1,-2,0
1509765196765119,1,5,14,10,3,2,2,-1
1509765196765119,0,-4,-9,2,5,3,0,0
1509765196766120,-4,-4,-5,-8,-5,-6,-3,-4
1509765196766120,4,7,10,1,-1,-2,-1,-1
1509765196787133,-3,-3,-6,-1,-2,-3,-2,-1
1509765196787133,-3,-2,16,-3,-1,1,-1,0
1509765196789134,-2,7,14,15,0,-2,-1,-2
1509765196789134,1,-3,-28,-18,2,-4,-1,-1
1509765196802153,0,3,-9,2,0,3,-1,1
1509765196802153,-4,-13,-4,-7,-4,-1,0,-1
1509765196810150,-2,-1,-13,-5,-8,-3,-1,-1
1509765196810150,1,3,10,7,-1,0,0,-1
1509765196824182,0,0,3,-3,0,-1,-1,0
1509765196824182,-3,3,33,5,2,-5,-2,-2
1509765196833227,0,1,-18,-9,-3,0,0,-3
1509765196833227,0,4,-16,0,1,5,5,0
1509765196855242,-4,-6,9,0,-1,-1,-6,-2
1509765196855242,1,-8,-23,-2,0,-5,-5,-1
1509765196856242,-1,2,8,-3,-2,-1,-2,2
1509765196856242,-4,10,20,4,0,-3,3,0
1509765196862249,2,0,-8,-2,-2,2,5,1
1509765196862249,-3,-3,7,-4,0,30,4,0
1509765196876271,1,8,8,2,2,-24,-2,-2
1509765196876271,-2,-21,-47,-7,-9,-26,-21,-6
1509765196885278,-2,5,37,8,0,-9,-6,0
1509765196885278,-2,-2,-14,-1,2,11,2,-2
1509765196886270,-3,-1,-28,-9,-4,6,7,-2
1509765196886270,2,0,-20,-3,-3,3,3,-1
1509765196908282,1,2,31,3,1,1,-1,0
1509765196908282,-8,-2,-40,-6,-3,-3,-2,-2
1509765196909295,0,8,10,1,1,8,-1,-1
1509765196909295,-1,0,27,5,3,-3,1,0
1509765196930451,0,-7,-10,-3,0,1,-2,0
1509765196930451,2,5,-1,0,-3,-13,0,0
1509765196931440,0,7,15,6,1,3,0,0
1509765196931440,-3,-8,-16,-7,-2,5,8,1
1509765196945448,3,-4,-30,-6,1,10,-13,-2
1509765196945448,-2,2,22,3,0,-5,21,0
1509765196946462,-4,-4,7,-4,-8,-34,-22,-6
1509765196946462,4,1,8,2,1,2,-17,0
1509765196967474,0,1,-9,-2,0,-2,3,0
1509765196967474,-1,-4,-24,-5,-2,1,-9,-3
1509765196969464,0,-3,-2,-4,-1,10,3,1
1509765196969464,0,0,19,1,0,3,6,1
1509765196981480,-2,0,-5,0,-2,-3,4,-3
1509765196981480,0,-7,5,-1,-3,-10,-8,0
1509765196990490,4,4,-27,4,1,9,5,-1
1509765196990490,-7,3,20,-1,0,-6,-3,-1
1509765197020018,-5,-12,3,-7,-1,0,4,-1
1509765197020018,3,10,5,0,-3,-8,-3,-1
1509765197022009,0,-10,-13,-7,-4,3,-4,0
1509765197022009,0,-7,-15,-2,-2,0,13,-2
1509765197034565,0,-2,-3,3,-2,-4,-13,0
1509765197034565,-4,0,15,14,-3,-10,0,-3
1509765197036561,8,2,-6,-18,-1,3,-3,-1
1509765197036561,-3,-5,-7,-2,-4,15,-1,-2
1509765197041562,1,-1,-4,-6,-1,-5,11,1
1509765197041562,-1,-4,5,2,0,-17,-16,-2
1509765197050572,-3,5,8,7,-2,6,10,2
1509765197050572,1,-1,10,-1,-2,-16,-19,-4
1509765197064581,-3,-7,-14,2,-2,9,1,-2
1509765197064581,0,-11,-4,-4,0,7,-1,0
1509765197066580,14,28,15,2,1,-7,1,2
1509765197066580,11,-1,-2,1,3,14,7,3
1509765197087610,-5,3,5,0,0,-6,-4,-2
1509765197087610,-6,-10,-18,-5,-1,-2,-4,-3
1509765197089599,-6,8,14,-3,-4,3,-4,-3
1509765197089599,-1,2,-2,-1,-2,-3,3,-1
1509765197101607,7,2,-8,5,1,1,1,1
1509765197101607,1,3,9,-2,0,-3,6,1
1509765197110614,-4,-8,7,17,-5,-2,-5,-3
1509765197110614,0,9,-8,-23,-1,-2,-2,2
1509765197132160,8,-9,2,5,1,4,4,1
1509765197132160,-26,-3,3,0,-1,2,1,-2
1509765197134164,-5,-7,-6,-5,0,-2,-2,-3
1509765197134164,-11,-4,8,10,-1,-6,-5,-3
1509765197146185,-2,-8,-9,-6,-4,-3,-1,-2
1509765197146185,9,5,0,-3,-3,-3,0,0
1509765197155177,-2,-6,8,9,5,-1,-3,-2
1509765197155177,2,-2,-11,-1,0,1,0,-1
1509765197161194,26,1,-2,-2,-1,3,1,2
1509765197161194,-23,16,7,4,-1,-3,-1,0
1509765197177192,-12,17,-3,-13,-7,-4,-3,-5
1509765197177192,-5,14,-4,1,-2,1,-1,-1
1509765197185211,-4,-35,-20,-4,0,0,-1,-3
1509765197185211,13,22,6,-2,2,5,-1,0
1509765197186213,4,-21,-2,-5,-1,2,-3,1
1509765197186213,4,10,15,5,2,-2,-2,0
1509765197207224,-4,34,8,1,-2,-1,0,-1
1509765197207224,8,-29,-17,-6,-3,-2,0,-3
1509765197209225,-8,-5,-7,-3,-2,-2,-1,-2
1509765197209225,8,-5,3,1,-1,0,-1,-1
1509765197221235,-9,-5,-6,3,1,-5,-1,0
1509765197221235,-1,-17,19,-7,-1,-1,0,-3
1509765197229779,4,20,-1,4,-3,-8,-5,-1
1509765197229779,-11,16,-2,8,3,5,1,1
1509765197244788,-20,-31,30,-8,1,-6,-4,-7
1509765197244788,10,22,-11,-11,1,-1,0,0
1509765197246789,8,-43,-6,-2,-5,-2,-2,0
1509765197246789,-5,-3,-11,4,3,-4,1,-1
1509765197274814,2,2,10,35,-8,1,1,0
1509765197274814,7,1,-46,-47,1,0,-2,1
1509765197276829,4,18,5,-3,1,3,1,0
1509765197276829,8,-20,32,-2,-1,-4,-1,-2
1509765197280815,-20,-2,-11,-10,-7,0,2,0
1509765197280815,6,-21,18,10,-3,0,-3,-3
1509765197289821,1,12,-31,2,0,-2,-1,1
1509765197289821,-3,6,-3,-5,-4,-3,-2,-2
1509765197304831,-1,-3,-5,-11,1,0,-2,-2
1509765197304831,1,2,17,9,-4,-1,-2,-2
1509765197306833,-5,9,8,0,5,-1,-3,0
1509765197306833,-1,-21,-10,3,2,-3,-1,-2
1509765197334914,2,11,-1,2,2,-3,0,-1
1509765197334914,-3,1,-2,14,1,-1,0,-1
1509765197341918,-3,3,-1,-17,1,-1,-1,1
1509765197341918,-3,-3,11,-4,-2,0,-1,-2
1509765197342937,0,-20,-32,-15,-2,-7,-2,-1
1509765197342937,-2,-1,30,11,-3,-1,-2,-2
1509765197349924,-6,7,-21,0,-3,-1,-4,-2
1509765197349924,-1,-11,-28,-9,0,1,0,-1
1509765197364936,-1,-2,-3,3,6,-1,-1,-1
1509765197364936,-1,10,16,4,-3,-3,-1,-1
1509765197366955,0,-1,17,5,-1,3,-1,0
1509765197366955,-3,-7,-6,-8,-1,4,-1,0
1509765197386950,1,5,0,1,1,-1,0,0
1509765197386950,-4,-6,-8,-2,1,-1,3,0
1509765197388952,-1,4,3,0,-3,1,-1,-3
1509765197388952,-2,-4,-15,7,3,-3,-4,-1
1509765197409984,0,2,22,12,0,1,0,-1
1509765197409984,-2,-2,-15,-29,-7,-1,-2,-2
1509765197411986,-4,-12,-13,3,0,-2,0,-1
1509765197411986,-1,-3,0,1,-3,-2,-2,-3
1509765197432500,1,2,4,-5,-3,-3,-2,-1
1509765197432500,2,9,0,0,-4,-2,-3,-2
1509765197434503,2,3,-16,9,7,2,1,0
1509765197434503,-1,-4,-4,-8,-1,-1,-1,-1
1509765197455535,-4,-16,26,-1,-2,-2,0,-2
1509765197455535,-4,5,-24,3,0,-1,-1,-2
1509765197457517,-2,8,10,-6,-4,-2,-3,-2
1509765197457517,0,-1,-10,0,-2,-2,-2,1
1509765197469526,2,5,-8,-5,1,4,0,1
1509765197469526,2,2,5,6,-1,0,-2,-1
1509765197476546,-4,-5,7,-5,-5,-3,-6,-2
1509765197476546,-2,-2,2,-2,-3,0,3,-2
1509765197484537,-3,-3,5,4,0,-3,0,-1
1509765197484537,-3,-1,-3,-7,-2,1,0,0
1509765197486538,-2,-6,-30,-14,-3,-4,-1,-2
1509765197486538,-2,-6,9,-3,-3,-1,-3,-2
1509765197507571,-3,2,-11,0,0,-1,-1,0
1509765197507571,1,3,7,6,0,-2,0,0
1509765197514059,0,1,15,1,1,-1,-1,-1
1509765197514059,-1,-3,3,4,-2,-3,-2,-2
1509765197546601,2,-3,-7,-4,1,1,1,-1
1509765197546601,0,1,-3,1,0,-5,-2,-2
1509765197547603,2,4,11,2,0,0,-1,1
1509765197547603,-11,3,-2,6,2,2,0,-1
1509765197548604,1,-2,-6,-9,-3,-3,-4,-2
1509765197548604,-5,-14,-26,-7,1,-2,-2,-1
1509765197568618,-6,1,24,14,-2,-5,-1,-3
1509765197568618,2,-5,-5,-25,-2,-2,-1,1
1509765197568618,0,0,-7,-3,0,0,1,1
1509765197568618,-3,4,-3,5,-4,1,0,-1
1509765197570621,0,1,4,-4,-2,1,0,2
1509765197570621,5,3,4,16,2,-1,-3,0
1509765197590635,1,6,-4,-15,1,0,-1,0
1509765197590635,-3,-3,21,6,0,3,-3,-1
1509765197591634,1,-4,1,-1,0,-3,-1,-2
1509765197591634,-7,-4,-2,4,0,-2,1,0
1509765197604644,0,0,-4,6,-2,-1,0,0
1509765197604644,2,8,0,-6,-2,-3,-2,-1
1509765197610648,1,0,-2,-4,0,-2,-2,0
1509765197610648,0,-5,-3,1,-5,-3,-1,-1
1509765197626163,-1,-2,6,4,-1,2,-1,0
1509765197626163,-1,-2,-6,-7,7,0,2,1
1509765197642677,-2,-5,-7,1,1,2,0,-3
1509765197642677,3,-11,-10,-6,-3,-6,-2,-2
1509765197649682,-5,-7,-14,-2,-4,-5,-4,-1
1509765197649682,2,3,3,1,-5,-3,-1,-1
1509765197651683,-1,6,8,0,0,1,-1,0
1509765197651683,-1,-1,-3,6,1,1,-1,1
1509765197672699,-4,-8,0,-4,-1,1,-1,-2
1509765197672699,1,5,-17,17,-1,0,0,-2
1509765197674700,3,5,4,-29,-4,4,0,0
1509765197674700,-2,-12,9,1,4,3,-1,-2
1509765197685707,3,-23,-35,-11,-3,-5,-3,-1
1509765197685707,-1,8,7,-2,-1,-1,0,-2
1509765197694715,0,1,1,10,0,0,-2,0
1509765197694715,1,4,9,2,-4,-2,-2,-1
1509765197709725,-2,-1,9,-1,7,2,0,0
1509765197709725,1,0,-5,1,-2,-1,-2,0
1509765197711725,-2,-2,-19,-2,-1,-2,-2,-1
1509765197711725,-2,-3,16,-6,-1,1,1,-1
1509765197732299,-3,1,3,3,-2,-3,2,-3
1509765197732299,0,4,7,-4,-4,0,0,0
1509765197734281,-2,-7,2,4,0,-8,-3,-4
1509765197734281,-1,-5,-14,-4,-5,-4,-2,-1
1509765197746290,-4,-3,-9,-2,0,-3,-3,-1
1509765197746290,2,-1,21,1,-3,-6,-4,-4
1509765197755296,-1,-5,-3,3,-2,4,-1,-1
1509765197755296,0,-7,-28,-15,0,1,-1,-2
1509765197770307,-2,-2,7,-1,-2,-3,-1,-1
1509765197770307,1,1,-4,-1,-2,-2,-1,-2
1509765197771308,0,2,3,2,-2,-1,-2,-1
1509765197771308,-1,0,1,6,-1,-3,0,-1
1509765197823860,-2,-2,12,4,-3,1,1,-1
1509765197823860,-5,4,-2,2,-3,-2,-3,-1
1509765197825859,-3,-6,-1,-12,2,-4,-2,-1
1509765197825859,-3,-6,3,3,0,1,-1,0
1509765197826359,0,-2,-3,0,2,-1,-1,-1
1509765197826359,0,0,-20,-3,-2,-2,-1,-1
1509765197839450,0,8,35,4,-4,-3,-2,-1
1509765197839450,1,-6,-4,-2,-3,-3,0,0
1509765197840460,-1,-7,-9,-4,-1,-5,-4,-2
1509765197840460,-15,6,-8,-1,-3,-4,-3,-4
1509765197859473,-2,-1,-13,-2,-2,0,-1,0
1509765197859473,1,0,6,-2,1,0,-1,-1
1509765197868481,-3,0,6,4,-2,0,0,-2
1509765197868481,4,0,4,-2,1,1,0,-1
1509765197869481,1,4,-11,0,-2,-3,-1,-1
1509765197869481,-5,-9,-10,-6,-5,-1,-4,-1
1509765197870476,5,-1,-2,-2,-1,1,1,0
1509765197870476,0,-2,1,-7,0,-1,-3,-1
1509765197881491,-1,-5,-4,-5,-3,2,0,0
1509765197881491,0,5,9,16,-1,-3,0,1
1509765197890486,0,-2,-1,-6,0,3,1,0
1509765197890486,0,-1,-9,0,-3,0,0,-1
1509765197891493,-1,2,12,4,-1,-3,-2,-3
1509765197891493,0,-6,0,-4,-5,-2,-1,-3
1509765197920041,-3,-4,0,2,6,1,2,1
1509765197920041,0,4,4,1,-1,-1,1,0
1509765197922023,-2,-4,-15,-1,0,-1,-1,-2
1509765197922023,0,2,-1,0,1,-3,-1,0
1509765197935037,-2,-4,2,-5,-3,-3,-2,-1
1509765197935037,0,3,-8,-5,-1,1,-2,-1
1509765197937039,0,1,15,23,1,0,1,-1
1509765197937039,-1,-2,-15,-30,3,1,1,-2
1509765197950062,-4,-5,1,5,-3,3,2,0
1509765197950062,1,2,-2,-6,-1,-5,-3,-2
1509765197952050,1,-3,-8,3,-5,-1,-1,1
1509765197952050,0,4,8,2,3,1,-2,1
1509765197972073,-2,-2,4,0,-1,-2,-1,-2
1509765197972073,11,-1,-9,0,-2,0,-2,1
1509765197974065,-6,4,8,-1,5,2,1,-1
1509765197974065,-4,-13,-11,-4,-1,-2,-1,-3
1509765197995081,-2,-1,-12,-9,-2,-3,-3,-1
1509765197995081,6,-4,3,3,-1,-2,-1,-2
1509765197997085,1,1,-16,-4,-1,0,0,0
1509765197997085,-2,3,32,4,-4,-2,-3,-3
1509765198010090,1,-2,6,7,2,0,1,0
1509765198010090,-2,4,5,1,-2,-4,-2,-2
1509765198011091,-1,-3,-9,-9,-1,-2,-3,-1
1509765198011091,-1,-1,1,3,0,0,-1,0
1509765198032116,-1,-2,-8,-2,-3,1,1,-2
1509765198032116,-6,1,-4,-1,0,6,0,-1
1509765198034116,-2,-4,-3,-4,-1,-4,-3,-2
1509765198034116,-1,-2,0,4,-2,1,-2,2
1509765198055130,-1,7,19,2,-3,-2,-3,-1
1509765198055130,-5,-4,-23,7,-1,-4,0,-1
1509765198056132,-1,-6,-16,-22,-2,0,-2,0
1509765198056132,-1,-4,7,5,0,-5,-3,-3
1509765198099162,-1,0,-5,-3,1,4,3,-1
1509765198099162,-3,5,10,1,-1,-2,-4,-1
1509765198124686,2,2,11,6,-1,-2,-1,1
1509765198124686,-1,-9,-16,-4,-1,0,3,1
1509765198125687,-6,-2,5,6,0,-1,2,0
1509765198125687,-4,0,-14,-12,-4,-2,-3,-3
1509765198129690,-1,-4,-15,-2,-4,-2,-2,-2
1509765198129690,10,1,2,7,3,4,1,0
1509765198131016,-8,-4,-3,-12,-2,-2,-1,-1
1509765198131016,-5,3,0,0,1,1,0,0
1509765198132014,0,-9,-17,-6,-5,-3,-3,-2
1509765198132014,-2,9,29,4,-1,-2,-1,-2
1509765198155030,-4,-8,-8,1,1,2,2,-1
1509765198155030,-3,2,19,0,0,5,1,0
1509765198155030,2,-6,-14,-1,0,-3,-1,1
1509765198155030,-1,1,0,-9,-3,-2,-3,-1
1509765198159044,-3,0,-7,1,-1,-3,-1,-2
1509765198159044,-2,-4,3,1,0,-4,-1,1
1509765198175062,2,2,-4,-10,-1,0,0,-1
1509765198175062,2,5,-4,2,-4,1,-2,-3
1509765198177046,0,1,14,0,3,0,-1,0
1509765198177046,-2,-4,-11,0,1,-4,-2,-2
1509765198197063,-2,-4,5,6,-1,1,0,-1
1509765198197063,0,9,7,-5,0,-2,0,-1
1509765198199062,1,-2,-15,-2,0,-2,-1,-1
1509765198199062,-8,-2,9,-3,0,-6,-3,-3
1509765198220087,-3,-3,-4,-1,-3,-4,-2,-3
1509765198220087,0,0,-6,-5,-1,1,-1,1
1509765198222089,-2,1,12,4,1,2,-2,-1
1509765198222089,2,-4,-14,-4,-2,0,1,1
1509765198251752,-2,-2,16,-1,-4,-2,-2,1
1509765198251752,4,-2,0,11,-3,-2,-2,-3
1509765198252753,1,4,-6,-12,-2,-2,-2,2
1509765198252753,2,-2,-1,-8,-4,0,-2,0
1509765198253755,0,-5,6,10,-1,-1,0,-1
1509765198253755,-2,-1,-29,-12,-1,-1,-1,-2
1509765198264761,0,-1,3,2,-1,-2,-1,-2
1509765198264761,-1,0,1,3,2,1,1,-1
1509765198272768,-3,0,-16,-10,-2,-1,-1,0
1509765198272768,-3,3,4,4,-1,-1,-1,-1
1509765198273768,-1,-2,13,-3,-4,-2,-3,-2
1509765198273768,-1,1,-3,-6,-2,-7,-4,-1
1509765198294783,-2,1,3,6,1,3,1,-3
1509765198294783,-2,3,2,-4,-1,-1,0,-2
1509765198296785,-2,-7,-14,-1,-4,-2,0,-2
1509765198296785,5,-5,2,-2,-1,0,-2,0
1509765198309794,-6,6,2,1,3,-3,-1,-1
1509765198309794,0,2,2,-3,-2,0,0,0
1509765198316312,0,-1,-6,3,-1,-1,-1,-1
1509765198316312,-3,-3,5,-1,-6,-2,-3,-3
1509765198332998,0,-5,-7,-13,4,-2,-1,-1
1509765198332998,1,-3,-11,-8,-5,-4,-2,-1
1509765198333996,-5,2,3,2,-1,0,0,0
1509765198333996,-1,-2,-2,25,3,-1,0,-1
1509765198394038,2,-3,-13,-25,-5,-1,-2,0
1509765198394038,0,5,23,4,-3,-4,-2,-2
1509765198395040,0,-8,-18,-8,-5,0,0,-2
1509765198395040,-3,-5,-2,2,2,5,1,0
1509765198396040,1,1,4,8,-1,-1,-1,-2
1509765198396040,-1,0,-8,1,0,-3,-2,1
1509765198425064,2,-1,9,-5,-1,1,-2,-2
1509765198425064,-4,0,1,-4,1,-3,0,-1
1509765198425563,0,11,-5,3,-2,1,0,0
1509765198425563,-4,-5,-5,-5,-5,-2,-2,-2
1509765198429597,-8,5,-8,-1,3,2,-1,3
1509765198429597,-3,-10,13,-8,-2,-1,1,-1
1509765198430069,-2,0,22,10,0,-1,-2,-2
1509765198430069,2,4,5,-4,-2,-2,-1,1
1509765198445183,3,-3,13,7,-3,-3,-3,-2
1509765198445183,-3,0,-2,12,1,-1,-2,-1
1509765198452176,0,-6,-18,-23,1,-2,-1,0
1509765198452176,0,5,-5,2,0,-1,-2,-1
1509765198454187,3,-2,2,-4,0,1,1,1
1509765198454187,0,-1,-2,4,-2,-1,-1,-2
1509765198476232,-3,-6,10,4,-2,-2,-2,0
1509765198476232,-3,-5,-20,-2,-3,2,-1,-1
1509765198476232,2,0,-16,-3,1,-1,-2,0
1509765198476232,-1,-3,11,-9,-4,-1,-2,0
1509765198497220,2,-1,7,7,0,1,0,-1
1509765198497220,1,6,3,-3,-1,-5,-1,-1
1509765198498209,7,-13,-17,5,2,-3,-2,0
1509765198498209,-1,0,-1,-7,-1,-1,0,-2
1509765198520245,-11,-1,1,4,-1,-1,-1,0
1509765198520245,-5,4,6,3,0,3,2,-1
1509765198521242,3,-2,-8,-3,-2,-1,-1,-1
1509765198521242,-3,1,10,-7,-1,-2,-1,-1
1509765198542761,2,-4,-10,-7,-4,-4,-1,-2
1509765198542761,3,-4,-6,8,5,2,0,-2
1509765198543762,-6,-1,17,3,0,-4,-3,-3
1509765198543762,-1,-3,24,-3,1,3,1,0
1509765198564777,-1,-1,-26,-1,-4,-2,0,-2
1509765198564777,1,4,2,13,-1,-5,-5,-2
1509765198565777,-4,-6,-24,-31,-3,-2,-1,0
1509765198565777,-2,-2,-6,-3,3,3,1,0
1509765198587793,2,-3,6,4,1,-2,0,-2
1509765198587793,-1,0,2,8,-2,0,-2,-1
1509765198601806,0,-3,12,4,1,1,-1,-1
1509765198601806,0,1,-8,-5,-2,-3,-3,-2
1509765198611814,-3,-5,3,3,-2,-5,-2,-2
1509765198611814,-3,1,6,-5,-1,0,-1,-2
1509765198612814,1,1,3,6,-3,-2,-1,-2
1509765198612814,-1,0,-17,-7,-1,0,1,-1
1509765198633468,1,-6,-5,0,0,3,0,-1
1509765198633468,-1,6,5,-5,-4,2,0,-2
1509765198633468,1,2,-9,-4,1,1,-1,0
1509765198633468,2,-14,-5,11,4,-6,0,-1
1509765198656477,-14,9,8,0,-1,-1,-1,-4
1509765198656477,0,2,-6,-5,-2,-4,-2,-1
1509765198657478,1,6,13,-1,-3,2,0,0
1509765198657478,-2,-11,-34,1,-3,1,2,0
1509765198658478,3,-1,10,15,0,-4,-4,-2
1509765198658478,-5,-3,-28,-38,-2,2,1,-1
1509765198662482,-1,-1,9,7,-2,-1,-1,-2
1509765198662482,-2,1,8,-8,-2,-1,-1,0
1509765198670486,3,-12,-36,0,-2,0,0,2
1509765198670486,-2,8,2,5,-3,-3,-1,-1
1509765198676511,0,-3,8,1,-1,-1,-1,1
1509765198676511,-1,-4,23,1,-1,-2,-2,-1
1509765198700511,-1,-8,-42,-14,-2,-4,-1,-2
1509765198700511,-1,1,16,7,2,0,-1,0
1509765198700511,-4,-6,-24,-10,-2,-4,-3,-1
1509765198700511,1,1,-8,3,0,1,-1,-2
1509765198714517,2,8,21,0,2,4,2,0
1509765198714517,2,3,14,2,-1,0,-2,0
1509765198715521,-9,-6,-10,0,0,-4,-3,-2
1509765198715521,-12,-2,8,1,-1,-1,1,-3
1509765198737682,9,-6,-12,-10,-6,-2,-2,-2
1509765198737682,-1,3,20,6,1,2,3,0
1509765198738702,1,-4,-4,-3,-3,-2,-4,-1
1509765198738702,2,-5,-29,-8,-2,-3,-2,0
1509765198751692,-1,6,15,4,1,-2,-1,1
1509765198751692,7,4,-6,5,-1,-1,0,0
1509765198752693,-7,-6,-14,-6,-2,0,0,-2
1509765198752693,3,2,-1,2,1,3,0,-1
1509765198782735,-1,0,18,-2,-3,2,1,-4
1509765198782735,-2,-12,-18,-3,-2,-13,-6,-1
1509765198783721,2,20,1,5,4,2,3,2
1509765198783721,-1,2,17,1,1,-5,-4,-2
1509765198797728,-1,5,2,-2,-1,-1,0,0
1509765198797728,14,4,17,0,-1,7,0,0
1509765198797728,-14,5,-5,1,2,-1,6,-1
1509765198797728,-1,-3,-6,2,-2,2,2,0
1509765198841214,-2,-3,9,0,-1,-1,-5,0
1509765198841214,0,21,-14,-7,-4,-1,-4,-1
1509765198851221,-3,-13,-1,0,0,-2,-3,-4
1509765198851221,10,-15,-2,2,1,3,3,-1
1509765198853222,-8,13,0,-2,0,-3,0,-4
1509765198853222,-4,-3,2,0,-3,-3,-1,0
1509765198854213,19,-11,-10,-1,0,-2,-1,0
1509765198854213,-22,4,14,-1,-1,1,-4,-4
1509765198866220,-4,-17,-5,-4,-3,-3,0,-1
1509765198866220,4,9,-1,-1,0,-1,-8,0
1509765198867221,14,-10,8,-2,-3,1,2,0
1509765198867221,-22,-9,-6,-3,-2,-1,-2,-3
1509765198871224,-1,-2,-5,-2,-2,-2,-4,-2
1509765198871224,-30,6,0,-2,-4,-4,-1,-4
1509765198879230,7,4,11,4,4,3,-2,1
1509765198879230,7,-10,-13,-3,0,5,-1,2
1509765198894251,0,-3,-1,-1,0,-3,-2,-2
1509765198894251,2,-8,-3,-4,-5,-2,-2,-3
1509765198895252,-5,4,4,-2,-2,-5,-6,-1
1509765198895252,1,2,-3,1,0,3,3,1
1509765198917764,4,-2,4,2,2,6,9,2
1509765198917764,-2,-9,-3,-1,-3,-5,-7,-2
1509765198918264,-5,-4,-2,-5,-7,-6,-9,-6
1509765198918264,8,-2,-3,-3,-3,-2,-6,0
1509765198931277,4,6,4,-2,-2,-6,2,0
1509765198931277,-1,4,-5,1,0,5,5,0
1509765198955309,-9,3,-1,-2,-2,1,3,1
1509765198955309,3,-4,-4,-4,-1,-4,4,-1
1509765198957306,-1,6,0,-4,-5,-5,-10,0
1509765198957306,-3,0,-7,0,2,33,29,-1
1509765198958307,-5,-14,-4,-4,-7,-32,-28,-7
1509765198958307,7,-5,3,1,-3,-22,-17,0
1509765198977320,-10,9,7,6,-1,-6,10,0
1509765198977320,4,0,3,0,3,2,-8,1
1509765198978309,3,-5,-13,-6,7,21,18,1
1509765198978309,2,2,11,5,6,63,50,7
1509765198991329,-4,1,-8,-6,-5,-58,-63,-7
1509765198991329,1,1,12,4,-13,-42,-20,-6
1509765198992319,-1,-2,4,-5,-4,-21,9,0
1509765198992319,-2,-1,-8,4,4,-7,-16,-3
1509765199030363,-8,-5,26,3,-1,35,25,-3
1509765199030363,17,10,-10,-1,13,11,3,4
1509765199030863,-6,-10,-9,1,-4,0,-2,0
1509765199030863,-1,-1,2,-2,-11,-15,-4,-3
1509765199037394,15,-15,-20,-12,3,13,11,3
1509765199037394,-7,-2,-4,-2,-3,-5,-6,-1
1509765199038374,-4,-3,5,1,3,12,4,0
1509765199038374,3,-10,2,11,0,-4,-6,-2
1509765199051404,-2,9,20,4,-12,0,0,-3
1509765199051404,-4,0,-20,-24,2,2,1,-2
1509765199052382,4,3,-22,10,6,8,-2,0
1509765199052382,-6,-7,8,-11,-8,-11,-4,-4
1509765199074398,3,6,-12,10,0,1,1,1
1509765199074398,-8,-4,37,-10,-5,-5,-2,-4
1509765199075416,-4,2,40,30,6,4,0,-1
1509765199075416,5,11,-12,-38,2,-4,-4,0
1509765199097414,1,8,-57,7,6,7,7,3
1509765199097414,-7,-9,3,-11,-9,-6,-4,-6
1509765199098420,-1,-4,26,8,-9,-5,-4,-3
1509765199098420,0,2,23,6,0,-3,2,0
1509765199111437,-1,1,-16,-5,0,2,1,0
1509765199111437,2,2,-10,15,-1,0,-1,-2
1509765199112425,0,7,-2,-28,-15,-4,-2,1
1509765199112425,-4,-14,-28,13,15,3,-2,-2
1509765199142011,-2,-3,19,-3,-3,-4,-2,-2
1509765199142011,5,5,6,7,1,-2,-2,1
1509765199143012,1,-11,0,-5,0,1,0,-1
1509765199143012,4,5,-23,-7,-4,-9,0,1
1509765199189045,-8,-5,4,6,0,0,2,-2
1509765199189045,-6,0,0,8,3,3,1,-2
1509765199190045,-7,3,-6,-12,-2,2,-2,-3
1509765199190045,4,-16,-17,2,-4,-4,-1,-1
1509765199191046,7,9,15,-3,-4,0,-1,-1
1509765199191046,-7,8,-7,5,5,-3,-1,0
1509765199195049,-3,-19,-20,-5,3,8,-1,-1
1509765199195049,0,9,20,4,0,-5,-4,-2
1509765199203055,3,-11,-24,-9,-1,2,1,1
1509765199203055,9,19,-8,-9,-2,2,-3,-1
1509765199209078,-7,-4,-23,-2,-2,-6,-1,0
1509765199209078,2,-14,6,4,-3,-6,-1,-2
1509765199217598,1,-1,30,2,2,5,0,0
1509765199217598,1,15,-27,-2,-3,-2,-1,-1
1509765199218091,2,2,-3,2,1,-1,-1,0
1509765199218091,-8,6,-8,0,-6,-3,0,-2
1509765199239193,-7,-1,0,0,0,-7,-2,-1
1509765199239193,-2,-16,5,14,-3,-2,-1,1
1509765199247202,0,6,16,-16,3,2,0,-1
1509765199247202,-10,4,12,-2,-2,1,-1,2
1509765199254206,-2,-1,-3,-3,-2,-1,-2,-4
1509765199254206,1,5,19,-2,1,0,-2,0
1509765199255195,9,-5,-2,10,1,-2,-1,-1
1509765199255195,-9,-8,-16,-4,-1,0,-2,-3
1509765199277226,-5,10,19,-5,0,-2,0,-5
1509765199277226,-7,-25,-33,-3,-2,-4,-2,-3
1509765199278213,4,0,3,1,1,1,1,1
1509765199278213,4,-11,-9,-5,-1,1,-1,1
1509765199292230,-7,4,-3,-2,-3,-5,-4,0
1509765199292230,2,0,6,3,-1,2,0,3
1509765199292230,-2,-1,5,-2,2,2,-2,0
1509765199292230,2,0,7,-3,0,-6,-1,-2
1509765199314241,-3,-4,-3,-3,-3,2,0,-2
1509765199314241,-1,-12,-7,4,1,-1,-2,-2
1509765199315244,-1,5,9,7,0,0,-1,-1
1509765199315244,-2,1,-17,-2,-2,-4,-1,1
1509765199337341,2,-1,44,-10,-3,0,-1,-1
1509765199337341,1,2,-73,-3,0,0,1,1
1509765199338336,-10,-12,49,5,-3,-4,-2,-4
1509765199338336,10,5,9,1,0,1,0,-1
1509765199351348,2,-2,-33,-3,-3,-4,-3,-2
1509765199351348,-2,2,22,-2,-2,-1,0,-2
1509765199352347,-1,3,-21,-3,-4,-6,-2,1
1509765199352347,-3,-6,7,6,7,11,1,0
1509765199374385,5,10,-2,0,-1,0,-2,2
1509765199374385,2,9,19,-1,0,-5,-2,0
1509765199399387,0,-12,-17,0,0,-2,1,-1
1509765199399387,-11,-11,13,0,-1,0,0,-2
1509765199400381,4,19,-27,-4,-3,-1,-2,-2
1509765199400381,-4,-18,11,0,0,2,-1,-3
1509765199401381,-9,16,-1,-4,-3,-5,-2,-4
1509765199401381,-8,-17,-8,-5,-3,-2,-1,-4
1509765199420404,-3,-2,-18,-2,0,-2,-2,0
1509765199420404,5,-8,20,-1,-3,-4,-3,-1
1509765199420900,3,4,-7,-4,-3,2,-1,-1
1509765199420900,1,-9,-1,9,0,-1,-1,-2
1509765199442815,1,3,-3,6,-1,0,-1,-2
1509765199442815,-1,-6,-8,-20,0,1,0,2
1509765199443817,3,-9,-19,-7,-1,2,0,0
1509765199443817,-3,-4,-22,-6,-1,-1,-1,-2
1509765199464851,0,3,4,2,-3,-3,-1,-2
1509765199464851,1,13,13,4,-2,-4,-1,-1
1509765199465832,-2,-4,31,2,1,6,0,0
1509765199465832,-2,-6,-45,-11,-4,-4,0,-2
1509765199478843,-4,-4,1,-1,-2,-2,-1,-3
1509765199478843,-5,2,1,-4,-4,-4,-2,-1
1509765199486874,-2,4,-7,4,4,0,-1,-1
1509765199486874,0,-9,19,6,2,-3,-2,-1
1509765199510866,-2,-5,-12,-2,2,1,1,-2
1509765199510866,-10,5,13,2,-3,-1,-2,-3
1509765199510866,0,-13,-2,-4,-1,0,0,-1
1509765199510866,0,3,12,0,0,1,1,1
1509765199518900,-3,1,1,-3,0,-1,-3,-1
1509765199518900,6,-16,-14,1,-2,4,-1,-1
1509765199524904,-7,-4,-3,0,0,-3,-1,0
1509765199524904,-1,-1,4,0,0,2,0,3
1509765199532914,3,14,2,0,1,0,0,-2
1509765199532914,-3,-3,-2,3,1,-2,0,-1
1509765199538920,-11,-2,-5,4,4,1,-1,-4
1509765199538920,0,4,2,-10,-3,-1,0,-2
1509765199553929,-20,-17,9,2,-6,-4,-3,-3
1509765199553929,10,14,-8,-7,1,0,0,0
1509765199554930,-2,-9,5,-3,-2,-1,-1,0
1509765199554930,2,2,9,6,-1,3,0,0
1509765199576945,0,-2,4,-7,-8,-3,-1,-2
1509765199576945,3,4,-24,-4,1,4,-2,0
1509765199577945,9,-1,9,28,7,-1,-2,-2
1509765199577945,-7,-7,28,-3,4,-1,1,-2
1509765199590954,-3,-11,-2,-13,-5,-3,-3,-2
1509765199590954,-9,-2,19,0,-4,0,1,-1
1509765199598960,9,2,-37,-18,-8,-2,-1,-2
1509765199598960,1,1,-9,3,-2,-2,0,0
1509765199613971,4,17,-6,0,0,1,0,1
1509765199613971,-6,-3,5,-4,0,1,0,0
1509765199614972,-6,-6,-8,-1,-1,-1,-1,-1
1509765199614972,0,-1,1,2,-4,-4,-2,-2
1509765199637550,0,4,13,-2,-1,-5,-2,-1
1509765199637550,4,-1,-14,1,1,9,1,-1
1509765199638551,1,-6,-5,0,1,0,-2,-2
1509765199638551,-1,-4,5,18,-5,-4,-2,-2
1509765199651561,0,4,-5,-23,-1,-1,-2,-1
1509765199651561,-1,-4,2,-13,-2,-4,-1,0
1509765199659568,-4,-5,4,2,1,0,1,-1
1509765199659568,0,8,-7,-11,-8,-2,-1,-1
1509765199704599,2,0,-3,19,4,3,0,-1
1509765199704599,-7,-12,33,5,-4,-10,-5,-4
1509765199712604,0,-4,-25,-9,-4,0,-2,1
1509765199712604,-2,-4,5,-2,2,2,1,-1
1509765199721615,-1,9,18,6,-5,-2,-1,-1
1509765199721615,-2,7,34,-4,-1,-1,0,0
1509765199722116,1,-3,-5,3,-2,-4,0,0
1509765199722116,0,-4,-28,-9,-4,-2,0,-1
1509765199724116,-1,3,21,-1,0,-1,-2,-3
1509765199724116,-1,3,-17,0,-1,-1,-3,-2
1509765199735734,-2,-8,6,-2,-1,-1,0,-3
1509765199735734,-1,1,-15,-3,0,0,0,0
1509765199737736,2,6,-13,-1,-1,0,-2,-1
1509765199737736,0,-10,-1,5,1,-2,-1,-1
1509765199741740,0,6,1,0,-2,-1,-1,0
1509765199741740,-1,1,11,-2,-2,-7,-3,-2
1509765199757751,-5,1,-10,8,-2,-1,-1,-1
1509765199757751,0,-5,-14,-15,4,0,-2,-3
1509765199758751,1,-1,9,-3,0,-2,1,1
1509765199758751,-1,0,5,1,0,-1,-2,0
1509765199778765,1,-1,-9,-8,-7,1,1,0
1509765199778765,-2,-4,-8,10,3,-4,-4,1
1509765199795779,-1,-2,-13,-3,-3,1,-1,-2
1509765199795779,-1,-3,-1,-9,0,-1,0,0
1509765199796778,2,10,1,14,1,1,0,-1
1509765199796778,-2,-2,24,-10,-5,-1,0,-1
1509765199797778,5,-3,10,11,4,-4,-2,-1
1509765199797778,-5,1,-19,-11,-4,-2,-1,-3
1509765199817799,-1,-4,-19,-5,1,0,-2,0
1509765199817799,3,-9,-8,-2,-2,0,-1,0
1509765199818299,-4,7,9,-2,-5,-1,0,-1
1509765199818299,-1,-5,8,-1,-1,2,0,-2
1509765199839850,2,-1,2,3,1,-2,0,0
1509765199839850,-9,-7,-18,3,-3,0,-1,-2
1509765199840851,15,13,4,-5,-1,1,2,2
1509765199840851,-3,-15,0,18,-1,0,-2,-1
1509765199854861,-1,0,-8,-31,-5,-2,-2,-2
1509765199854861,8,23,19,11,2,-2,-1,1
1509765199855860,-11,-31,-49,-10,-3,4,-1,-1
1509765199855860,-4,5,15,-4,-3,-6,-1,-2
1509765199884882,0,3,-36,4,1,-3,-3,-1
1509765199884882,-2,-4,22,2,-1,-1,-1,-2
1509765199885882,-4,0,6,-3,0,-2,-1,-2
1509765199885882,3,-2,5,2,0,-2,0,1
1509765199907897,-3,-1,11,4,-1,1,-1,-2
1509765199907897,-1,2,-16,0,2,5,0,0
1509765199907897,-2,-1,3,-2,-2,-2,-1,0
1509765199907897,0,-3,3,0,2,0,0,-1
1509765199913910,-1,3,8,2,-1,2,-3,-2
1509765199913910,-1,-5,-7,-1,-2,3,-1,-1
1509765199930418,0,-7,-4,-5,-1,-1,-3,-1
1509765199930418,4,0,-1,7,-1,-1,0,-3
1509765199937424,-3,3,3,-6,3,-4,-1,2
1509765199937424,-10,-3,-12,0,-2,-3,-3,-4
1509765199939429,-3,-8,9,-9,-3,2,-1,-1
1509765199939429,2,4,-7,-2,-1,0,-1,-1
1509765199967449,-2,-7,-3,1,-5,0,0,-3
1509765199967449,-1,-2,14,6,0,-3,-2,0
1509765199975452,1,0,-5,-1,4,7,4,2
1509765199975452,-6,-1,-28,-11,-3,-4,0,-3
1509765199976453,3,0,0,1,-1,1,1,-2
1509765199976453,0,1,7,-2,-1,2,1,0
1509765199998469,-3,-1,4,1,-5,-1,-6,-2
1509765199998469,0,-3,6,-2,-2,-1,0,0
1509765200004486,0,7,9,1,-3,0,-3,0
1509765200004486,-1,-2,-7,4,-1,-3,1,-1
1509765200011478,-2,-6,4,6,-4,-4,0,1
1509765200011478,0,-8,-46,-22,-2,0,-2,-1
1509765200020007,6,0,13,2,6,-1,0,0
1509765200020007,-11,3,19,-5,2,8,4,0
1509765200022009,-1,0,13,9,-2,1,0,-2
1509765200022009,-2,-2,1,-2,-5,-7,-4,-2
1509765200034134,-4,3,-8,1,-3,-4,-5,-3
1509765200034134,7,0,-17,2,0,-1,0,3
1509765200041129,-1,-14,4,-5,0,-2,-1,-2
1509765200041129,-10,2,4,1,-1,9,6,2
1509765200065159,-1,4,4,-7,-4,-1,-5,-1
1509765200065159,2,-6,1,11,0,-7,-4,-4
1509765200067149,-2,5,-5,-4,-2,-6,1,-2
1509765200067149,4,-3,-6,-3,-1,-5,-5,-1
1509765200087190,-16,4,0,2,-2,-1,1,-3
1509765200087190,-1,-2,-8,3,-4,0,-2,0
1509765200089163,1,-3,-10,-17,-1,-3,0,-1
1509765200089163,-1,-1,10,4,-2,2,1,-2
1509765200094177,1,7,-1,-12,-8,-2,-1,-2
1509765200094177,3,-4,-1,12,8,-1,-2,-2
1509765200108177,-5,-1,-17,-16,2,7,0,-1
1509765200108177,-1,-4,10,13,-1,-2,-3,-1
1509765200117696,2,2,0,1,2,-2,-1,-1
1509765200117696,-2,-5,-10,-10,-5,-5,-3,-1
1509765200123718,3,1,6,3,-1,-2,-1,0
1509765200123718,-3,-1,1,-4,-3,-4,-2,-1
1509765200140291,-7,6,-7,4,0,-1,-2,0
1509765200140291,3,-5,0,-6,-2,0,0,-1
1509765200141278,0,0,6,7,1,-2,-4,1
1509765200141278,-12,2,-1,-6,-2,0,-2,-3
1509765200161292,6,-6,-5,2,-3,-3,-1,1
1509765200161292,0,-1,0,-6,-1,-1,-1,-1
1509765200170309,-3,0,-3,-3,-3,-4,-1,-1
1509765200170309,3,0,-2,1,-1,-2,-2,1
1509765200185319,-1,-1,2,-1,-4,-1,-2,-3
1509765200185319,0,7,1,-3,-2,-3,-1,0
1509765200186310,1,-8,6,8,0,-2,0,-1
1509765200186310,-2,-5,8,-4,1,4,-1,-2
1509765200200328,-1,0,-8,-2,-4,-10,-4,0
1509765200200328,2,-7,-7,-6,0,9,4,1
1509765200201323,3,-8,-4,2,-2,-6,0,0
1509765200201323,-6,11,12,2,2,-2,1,2
1509765200229354,2,1,-8,-6,-2,-4,-3,1
1509765200229354,-5,-3,8,-2,-5,-5,-2,-3
1509765200247400,0,-1,0,0,-2,4,1,0
1509765200247400,0,-11,-6,-6,-3,0,1,-1
1509765200248377,-1,-4,-7,1,0,0,-3,-1
1509765200248377,1,6,1,0,-1,-2,2,2
1509765200268404,-2,1,-5,-1,0,0,-2,-1
1509765200268404,4,-2,-9,-1,-1,-2,-1,-1
1509765200269391,1,1,-4,1,-2,3,1,0
1509765200269391,-8,-19,2,0,1,-1,-3,-2
1509765200270393,-1,-4,-7,-5,-5,-5,-2,-1
1509765200270393,2,-5,-10,0,-1,-6,-2,-2
1509765200290410,-5,-10,10,-2,-1,2,-1,-1
1509765200290410,-1,16,-13,-1,-1,0,0,0
1509765200291415,-3,-2,10,2,2,2,0,0
1509765200291415,0,5,-15,1,1,0,1,-1
1509765200311421,1,2,-2,-1,-1,5,6,1
1509765200311421,-1,-4,-8,1,-2,-6,-10,0
1509765200329948,0,-2,-2,3,2,1,0,-2
1509765200329948,2,9,20,-2,-1,-2,-2,-2
1509765200330947,0,3,-15,-5,-1,-3,-4,-1
1509765200330947,1,-6,1,-3,-4,5,2,-1
1509765200343670,0,-1,-11,14,1,-1,-1,1
1509765200343670,-6,-5,5,0,1,3,-1,-2
1509765200344657,1,5,9,10,-1,0,-2,0
1509765200344657,0,-7,-21,-19,2,0,0,-1
1509765200346660,1,-3,-1,-3,-2,-4,-2,-1
1509765200346660,5,1,3,2,-3,-4,-1,-2
1509765200356694,-6,5,1,-1,-4,-3,-4,-2
1509765200356694,7,-3,11,3,-1,-4,-2,0
1509765200365673,-7,-4,-22,-4,-3,0,-1,-3
1509765200365673,-1,2,12,-3,-3,-3,-1,-1
1509765200379696,4,1,-12,-5,1,-3,-1,0
1509765200379696,0,-7,0,1,1,-1,-4,-1
1509765200381683,-2,0,6,-2,2,2,3,0
1509765200381683,1,8,8,3,-1,0,1,2
1509765200402699,4,4,0,-2,-1,-2,0,-1
1509765200402699,-6,-6,-6,-4,-5,-5,0,-2
1509765200404700,1,-6,3,0,-3,-2,-3,-1
1509765200404700,-2,2,-9,1,6,2,0,0
1509765200417738,0,3,13,5,-3,-5,-2,-3
1509765200417738,-3,-5,-33,-11,1,3,1,-1
1509765200419226,-3,-6,7,-7,-2,-4,-1,-2
1509765200419226,-2,-1,-8,-5,-5,-3,-1,-1
1509765200439865,-3,-3,1,-2,-2,-2,-3,-2
1509765200439865,1,9,16,5,-1,-2,-1,-1
1509765200441867,-6,-8,-6,-1,0,-2,-2,-2
1509765200441867,-6,-21,-5,2,-1,-2,-3,-1
1509765200462872,1,23,12,-2,-1,-2,-1,0
1509765200462872,8,-41,12,10,4,1,4,3
1509765200463872,-17,55,-36,-17,-8,-6,-4,-11
1509765200463872,11,8,14,5,-1,-3,-1,2
1509765200484901,-5,-50,5,12,5,7,6,6
1509765200484901,-24,53,3,-15,-9,-8,-8,-11
1509765200486903,-5,-23,-13,0,4,2,0,-1
1509765200486903,6,10,-12,-8,-4,2,-2,-2
1509765200507914,5,19,2,-1,1,-4,-2,-3
1509765200507914,8,-25,3,6,-2,-5,1,4
1509765200509915,2,-19,12,5,3,6,2,4
1509765200509915,-3,-2,-12,-5,-6,-3,-2,-3
1509765200513920,-11,-10,1,-1,1,4,-2,-3
1509765200513920,2,-4,-4,5,0,-2,-2,-1
1509765200530934,-3,-3,6,-8,-4,-6,-2,-3
1509765200530934,1,-4,11,-6,-8,-2,1,0
1509765200537998,9,12,-15,-1,9,5,0,1
1509765200537998,14,-5,-13,-2,-3,-7,0,0
1509765200544994,-9,-15,9,8,4,2,0,1
1509765200544994,-27,12,4,3,5,2,0,-4
1509765200567009,-14,-1,-5,14,-9,-6,-7,-4
1509765200567009,21,25,-15,-28,-2,5,0,1
1509765200576029,15,-13,12,7,-1,1,2,1
1509765200576029,-5,-2,-7,-6,-3,-6,-3,-3
1509765200582031,6,12,0,-6,-3,-3,-2,-2
1509765200582031,-7,-9,-4,5,2,1,-1,-2
1509765200604045,0,1,10,5,1,0,2,2
1509765200604045,-5,4,-7,-4,-3,-2,-2,-2
1509765200621570,1,6,-3,-10,-2,-2,0,0
1509765200621570,-7,-11,8,10,-4,-1,-1,-3
1509765200623071,0,-3,0,-10,-2,-3,-3,-1
1509765200623071,5,6,9,9,-1,0,-3,-1
1509765200624071,-7,1,-5,-14,1,0,1,0
1509765200624071,-9,-4,2,3,0,-1,-2,-2
1509765200644178,2,-2,2,1,-6,-4,-2,-2
1509765200644178,2,2,-3,-1,4,0,-1,1
1509765200644178,3,5,13,-13,-6,1,-2,-2
1509765200644178,-12,-9,-22,19,8,2,0,-2
1509765200667194,2,-7,2,2,-1,-4,-1,1
1509765200667194,13,-3,29,15,-5,-3,-5,-1
1509765200668205,-20,-2,-66,-33,-5,-3,-1,-3
1509765200668205,-13,-8,-2,-8,-3,-4,-2,-2
1509765200680204,0,-3,-4,-1,2,4,1,-3
1509765200680204,0,4,-1,-2,-3,-4,-1,0
1509765200681205,14,10,13,8,0,-2,-2,0
1509765200681205,3,2,12,1,-3,1,-1,2
1509765200683207,-9,-18,3,0,1,-2,-2,-1
1509765200683207,-3,-8,-25,-11,-2,5,1,-3
1509765200702233,0,1,5,9,2,3,-1,-2
1509765200702233,-13,-17,-8,-4,0,1,-1,-1
1509765200704234,5,7,12,3,-1,-2,0,-1
1509765200704234,-7,-3,-5,-2,0,-1,0,0
1509765200717243,4,-1,6,0,-4,1,3,0
1509765200717243,-4,0,2,-4,-2,-2,-11,-3
1509765200719240,3,-2,-44,-11,-3,8,10,3
1509765200719240,-5,2,22,-2,-3,-8,-7,-3
1509765200740304,-6,-4,5,6,2,-7,-7,-3
1509765200740304,9,-3,6,1,-1,0,1,3
1509765200741306,2,2,17,0,0,-3,-5,0
1509765200741306,1,0,-28,-4,0,7,5,-2
1509765200762329,-2,-3,5,1,-2,-3,-1,1
1509765200762329,9,-3,1,-1,0,-2,2,1
1509765200764322,-5,12,5,-1,1,4,1,0
1509765200764322,0,-7,-7,-10,-5,-5,-1,-2
1509765200785337,2,1,6,3,1,5,0,1
1509765200785337,2,4,-3,3,1,1,1,0
1509765200786337,-2,-3,-1,-6,-3,-7,-3,0
1509765200786337,-8,1,0,-2,-1,-3,-1,0
1509765200807364,-5,-4,-1,-1,-3,-2,-4,-3
1509765200807364,4,8,-4,0,0,3,4,0
1509765200809363,2,5,0,3,1,-1,-5,-1
1509765200809363,1,10,5,0,-1,-1,-3,0
1509765200822888,2,-12,19,5,-4,-2,1,0
1509765200822888,-6,-4,-9,-4,-2,-2,1,-1
1509765200824391,-4,-2,6,-1,-2,0,-1,0
1509765200824391,9,8,-12,-5,-5,-5,-3,1
1509765200837449,-10,-4,0,1,0,-3,-3,-2
1509765200837449,6,-4,9,2,-1,1,2,-2
1509765200839435,-9,-12,-7,-4,1,-1,1,-2
1509765200839435,1,0,6,-1,-4,-8,-1,-2
1509765200866461,3,1,-4,-1,-5,-3,-5,2
1509765200866461,4,-5,0,-9,0,-5,-5,-1
1509765200889474,5,-5,4,8,4,5,3,2
1509765200889474,-9,3,5,1,-1,4,5,-3
1509765200890470,-1,-6,-16,-3,-3,-14,-14,-3
1509765200890470,-3,1,3,-1,0,0,-3,-1
1509765200907496,0,9,13,1,-1,-4,-3,-3
1509765200907496,2,-17,-11,-3,1,4,1,0
1509765200907496,-6,40,7,5,2,3,6,3
1509765200907496,-7,-44,-17,-6,-3,-4,-3,-3
1509765200911484,-3,-6,8,-2,-2,-1,0,-2
1509765200911484,6,7,1,-1,-1,-1,-3,0
1509765200920505,5,-9,-4,0,1,4,2,-2
1509765200920505,0,8,1,4,4,4,2,3
1509765200922016,2,-1,-1,-1,0,3,0,-1
1509765200922016,18,-1,-11,-1,1,-4,-3,-1
1509765200943028,-12,-6,-1,-2,-2,2,0,-1
1509765200943028,-29,7,13,4,2,-2,0,-5
1509765200944026,0,-13,-8,-4,-3,-2,-1,-1
1509765200944026,2,1,-6,3,0,-4,-3,2
1509765200957038,7,-8,-6,-7,-3,1,1,-1
1509765200957038,2,-8,0,-4,-3,-3,-1,-1
1509765200971064,-20,-28,-6,-6,-6,7,10,-3
1509765200971064,4,3,-7,-3,0,16,15,11
1509765200980052,23,-47,-2,2,-1,-33,-9,-8
1509765200980052,-3,53,10,-3,-4,-32,-37,-8
1509765200982052,-15,-73,-22,-5,-4,-19,-17,-12
1509765200982052,-20,22,18,2,1,12,6,-2
1509765201002068,-5,4,-5,2,0,18,17,7
1509765201002068,8,-8,-9,-2,0,13,18,3
1509765201004069,-16,26,10,3,4,22,18,1
1509765201004069,6,-14,-6,-4,-5,-52,-48,-10
1509765201017095,1,-29,-4,-4,-6,-12,-1,-1
1509765201017095,-4,19,5,1,1,0,2,1
1509765201024087,11,12,-2,1,1,10,3,4
1509765201024087,-2,-7,-3,1,0,17,8,-3
1509765201038713,-4,26,3,1,-1,-3,-3,0
1509765201038713,10,-19,-1,5,3,8,7,3
1509765201047718,11,10,-2,-5,-5,-9,-1,2
1509765201047718,-9,14,-3,1,3,-1,-2,-4
1509765201062729,2,-6,0,-3,0,3,-7,-5
1509765201062729,-6,-3,2,-2,-2,6,8,3
1509765201063733,4,9,-12,0,2,-9,-4,3
1509765201063733,1,3,-1,-1,-7,0,1,-3
1509765201083755,-8,-4,-63,-4,-2,9,1,-1
1509765201083755,-2,-11,30,-2,-3,6,7,-1
1509765201092750,1,12,12,-5,-4,-17,-16,-4
1509765201092750,8,17,-54,-3,3,6,6,6
1509765201107771,-1,-1,46,3,-3,-3,-4,-1
1509765201107771,-7,-9,-56,-11,0,-5,0,-4
1509765201108767,5,-14,61,8,0,-1,-1,0
1509765201108767,-18,17,102,21,-14,-8,-3,-10
1509765201129799,3,15,-60,-17,1,8,3,3
1509765201129799,5,-9,-78,-2,2,-2,-4,1
1509765201138041,-5,-15,78,3,-3,-7,-2,-3
1509765201138041,2,3,-14,13,4,4,2,0
1509765201144064,-2,10,27,-10,-1,-2,-1,-1
1509765201144064,7,-4,-28,2,-2,0,-3,1
1509765201153063,-2,3,-70,-13,2,4,2,-1
1509765201153063,-6,-3,-19,-1,3,-2,0,-2
1509765201175082,-3,-5,-8,-9,-1,-1,-3,-3
1509765201175082,2,0,16,3,0,-1,-1,0
1509765201189107,5,2,-34,-8,-3,0,-2,0
1509765201189107,-12,-9,19,7,-4,-11,-5,-6
1509765201199097,-2,9,6,7,3,5,-1,-1
1509765201199097,0,-18,20,0,-2,-5,-2,-1
1509765201200088,0,-2,-4,2,-3,2,-1,-2
1509765201200088,5,13,-20,-15,0,-3,-1,1
1509765201201086,-2,9,11,4,2,4,1,-1
1509765201201086,-2,-8,13,1,-2,0,-2,-2
1509765201205089,-4,2,-3,1,-2,-3,-1,-1
1509765201205089,3,-8,-19,-10,2,5,2,1
1509765201220111,-7,-6,2,11,0,-2,-4,-3
1509765201220111,-3,1,25,-2,-6,-4,-1,-3
1509765201221619,1,6,-9,-5,3,3,2,1
1509765201221619,2,4,-18,-9,-2,1,0,0
1509765201249744,2,-9,20,3,-6,-6,-2,1
1509765201249744,-5,-3,10,21,0,2,-1,-4
1509765201251748,1,2,-16,-17,7,1,0,0
1509765201251748,-1,-8,-4,-10,-3,1,-2,1
1509765201255749,-5,6,-4,0,-2,-8,-2,-1
1509765201255749,-8,3,-13,-14,-3,-6,-2,-1
1509765201272762,4,4,-20,14,-5,-1,-2,1
1509765201272762,-2,3,79,10,3,1,-1,-3
1509765201279779,-5,-7,-42,-11,-2,1,-2,-1
1509765201279779,1,0,30,6,0,0,-2,-1
1509765201281769,2,0,-15,-7,-4,-4,-1,-1
1509765201281769,2,-1,-16,-7,1,4,2,0
1509765201302784,6,6,20,8,0,-2,-2,-1
1509765201302784,-5,2,-10,-10,-1,-1,0,1
1509765201303783,1,-2,-1,8,5,2,0,-1
1509765201303783,5,2,-16,3,-3,0,-1,0
1509765201315792,8,-5,9,-7,-1,-1,-1,-1
1509765201315792,-3,-2,-9,-7,-2,-1,-2,-2
1509765201342335,11,4,7,-2,-5,-3,-1,0
1509765201342335,-4,9,-15,-2,-3,-5,-3,-3
1509765201343317,0,-9,0,4,1,-1,-2,-1
1509765201343317,-1,-1,10,-1,-2,4,1,0
1509765201378346,-2,-7,7,22,1,-1,-1,-2
1509765201378346,1,-4,-19,-31,-2,-1,-3,-2
1509765201379344,0,11,-6,3,-2,1,-1,0
1509765201379344,-5,-16,15,3,4,2,1,0
1509765201381345,-10,1,-12,-12,-3,-4,0,-4
1509765201381345,-3,-11,-18,6,-5,-6,-1,1
1509765201385347,-7,-4,8,-3,-2,1,1,-1
1509765201385347,7,9,-21,16,5,-2,1,1
1509765201386348,-7,9,18,-5,-2,1,0,-2
1509765201386348,-7,0,-2,-1,0,-2,-1,-1
1509765201422879,4,-4,-13,-5,0,1,-2,0
1509765201422879,1,-4,10,-3,-3,-1,-1,-1
1509765201445129,0,-9,7,-1,-2,-3,2,0
1509765201445129,3,3,-7,-3,-1,10,2,1
1509765201446132,0,1,7,3,1,1,0,-1
1509765201446132,-7,-15,-3,-8,-5,-3,-3,-1
1509765201462142,-6,22,-6,3,4,0,1,-2
1509765201462142,0,6,-4,-1,-7,-2,-1,-1
1509765201463147,0,-5,5,1,1,-1,-2,0
1509765201463147,-3,1,3,-3,-1,2,-1,-3
1509765201476151,-2,-3,-5,-3,1,-1,4,-1
1509765201476151,6,-2,1,-5,-1,-6,-7,-2
1509765201482155,-2,0,6,-1,-4,-4,-1,-2
1509765201482155,6,4,-1,-5,-2,1,2,0
1509765201488160,-14,-8,-4,2,1,0,0,0
1509765201488160,-3,3,7,-1,-1,-4,-4,-3
1509765201496165,-3,-8,-3,-3,-1,2,-1,-2
1509765201496165,-1,-3,-6,1,-1,-1,-1,0
1509765201505171,4,0,-1,-1,-5,-1,-1,-2
1509765201505171,-1,1,0,-3,-1,0,-1,-1
1509765201520184,-1,-2,-12,2,-2,-3,-4,0
1509765201520184,1,0,5,-5,1,1,1,0
1509765201521685,-2,-2,-3,11,-2,-4,-1,-3
1509765201521685,-3,-1,-8,-23,1,2,1,-3
1509765201557633,8,-1,0,1,2,-3,-2,1
1509765201557633,-14,0,18,-1,-1,0,1,-2
1509765201572646,1,-5,-8,-1,-4,2,2,-2
1509765201572646,3,-3,-29,4,-2,-2,-7,0
1509765201573646,-13,-22,3,2,-2,4,5,-4
1509765201573646,4,4,8,-3,-2,-5,-8,1
1509765201575646,-2,-6,-9,0,-7,-9,-5,-3
1509765201575646,0,6,-1,0,1,0,1,0
1509765201593659,-1,-2,1,2,3,0,-2,-2
1509765201593659,-17,-5,-12,3,-3,-1,4,0
1509765201633190,3,5,2,-7,-1,2,-1,1
1509765201633190,5,6,16,2,0,-4,-1,1
1509765201634191,-2,3,0,-2,-4,-3,-3,-1
1509765201634191,4,-15,-34,0,-4,-1,0,-1
1509765201707635,-1,2,-4,-13,-1,1,-2,0
1509765201707635,-2,1,4,1,-4,-3,-1,-1
1509765201708638,1,2,11,4,4,4,2,-1
1509765201708638,5,3,9,3,-1,-7,-6,-1
1509765201730154,-5,-20,-25,-11,-2,-3,-1,-2
1509765201730154,-3,1,6,1,-1,0,-2,-1
1509765201730654,-1,-2,-12,-6,-3,-3,4,-1
1509765201730654,-2,0,8,-5,-2,3,-9,-2
1509765201754673,-2,3,5,-2,1,17,6,3
1509765201754673,2,-6,14,1,0,4,21,4
1509765201756675,-6,-4,-7,-4,-1,-19,-38,-11
1509765201756675,-1,1,-3,-5,-3,-3,-8,-2
1509765201761678,-2,1,-2,0,-3,-15,-5,-4
1509765201761678,-1,-3,6,3,4,7,-3,-1
1509765201762679,-9,-1,-1,-2,-1,5,-3,-4
1509765201762679,2,-5,-8,-1,-3,-3,1,-1
1509765201783698,3,2,6,-4,-1,0,6,2
1509765201783698,-5,-5,8,3,-6,-1,-3,-1
1509765201784695,1,-3,-20,-8,7,2,4,1
1509765201784695,-3,-4,-8,-2,-6,-9,-6,-2
1509765201786696,1,5,6,-4,7,4,1,-2
1509765201786696,2,1,5,2,-8,2,0,-2
1509765201804709,1,-7,-13,9,5,-5,-5,0
1509765201804709,-2,0,20,5,1,-2,-4,-2
1509765201810714,3,2,-3,-1,-4,7,3,0
1509765201810714,0,3,6,-6,0,-4,-1,-2
1509765201819727,-4,-10,-8,-7,-6,-8,-6,-2
1509765201819727,0,-1,-14,2,3,6,1,0
1509765201827233,-2,-1,18,4,-2,-2,5,0
1509765201827233,-3,4,-10,-2,2,1,0,-2
1509765201866480,1,2,4,-2,-3,-1,-3,-1
1509765201866480,-1,-8,4,-3,0,-1,1,-2
1509765201867481,1,-8,-7,-2,-4,3,1,-1
1509765201867481,5,16,-3,1,2,-1,-3,1
1509765201956050,5,2,8,1,-3,-2,-3,-1
1509765201956050,-5,-7,-8,-8,-3,-2,-2,-2
1509765201958054,-2,0,-1,2,0,-2,-1,-1
1509765201958054,0,1,0,0,2,-2,-2,-2
1509765201958054,-2,-6,-5,-3,-3,3,0,0
1509765201958054,6,4,0,1,2,-1,1,1
1509765201969061,-5,2,2,18,-3,1,1,-1
1509765201969061,-4,-5,-4,-21,2,-1,1,-1
1509765201977070,-4,-1,4,-6,2,-1,-3,-2
1509765201977070,6,-1,-6,0,-1,1,1,-1
1509765202039120,-11,-7,-9,-5,-3,-3,-1,-3
1509765202039120,3,-6,-7,-8,-6,-2,-3,-4
1509765202040121,-4,0,9,5,-3,-1,0,-1
1509765202040121,2,2,11,-5,-10,-1,0,2
1509765202046126,8,-1,-19,1,10,-1,-2,0
1509765202046126,-3,-3,5,4,3,1,0,-1
1509765202047127,-8,-3,-10,3,1,-1,-2,-3
1509765202047127,-4,-3,-3,-9,-1,-1,-1,-2
1509765202049129,3,0,-3,-4,-1,0,-2,3
1509765202049129,8,-4,-4,1,-2,-1,0,0
1509765202062138,11,12,26,5,2,0,-2,-2
1509765202062138,-18,-4,-6,4,1,-3,-3,-5
1509765202063138,2,-9,-10,-7,-5,-3,-2,-2
1509765202063138,6,-6,10,4,2,-2,0,1
1509765202073144,8,5,-11,-5,-2,0,0,3
1509765202073144,-3,6,2,-5,-2,4,-1,-1
1509765202082151,3,-1,2,6,1,-3,-2,-1
1509765202082151,-19,-5,-21,-7,-2,-1,-1,-2
1509765202084152,2,1,-4,-6,-2,-2,1,-1
1509765202084152,5,-7,-14,4,-2,-1,-1,-2
1509765202112172,-2,3,18,5,0,-7,-2,0
1509765202112172,-1,2,-7,-4,-5,0,1,1
1509765202114175,5,2,20,-6,1,1,0,-1
1509765202114175,-19,-6,2,-5,1,-1,-1,-1
1509765202164214,-3,-7,5,0,-2,-1,-2,-3
1509765202164214,0,1,-3,-1,0,-1,-1,1
1509765202247830,1,-1,-27,2,-3,-1,-2,0
1509765202247830,9,7,9,2,-3,-5,-2,1
1509765202299885,-2,0,7,-1,-1,-1,-2,0
1509765202299885,-6,-2,3,-1,2,0,1,-3
1509765202314877,-1,-2,2,-1,-5,-1,-1,-1
1509765202314877,-1,5,-14,-1,3,-2,2,-2
1509765202315878,-5,6,2,3,4,25,20,2
1509765202315878,3,-6,-11,1,-4,-50,-38,-7
1509765202323918,0,14,63,2,0,9,4,0
1509765202323918,3,-5,-22,-5,-3,10,21,1
1509765202324916,-4,-6,10,-7,-5,-11,-5,-4
1509765202324916,1,8,9,6,5,10,13,2
1509765202337041,-10,-11,-11,1,0,2,3,0
1509765202337041,2,-11,-13,-6,-2,8,-3,-2
1509765202345046,2,4,12,2,3,-1,-2,2
1509765202345046,2,-16,-21,-8,-4,-3,-1,0
1509765202347040,-4,4,-7,2,4,12,3,-1
1509765202347040,-3,-9,1,-2,-1,-2,-3,-3
1509765202359052,13,12,8,1,0,-4,0,1
1509765202359052,2,1,10,1,-2,1,-1,0
1509765202368064,-3,2,0,1,-4,-1,1,-1
1509765202368064,1,0,-14,-15,2,-4,-3,-2
1509765202382074,-1,1,20,9,-3,-7,-3,-1
1509765202382074,0,-8,-18,-6,1,-1,1,0
1509765202406080,-6,-9,31,-4,-10,-7,-5,-5
1509765202406080,1,-3,11,-2,-6,-1,-1,-1
1509765202407080,7,-1,-15,-3,-3,2,-4,1
1509765202407080,0,-1,-10,3,0,-4,2,-2
1509765202411089,-6,9,-1,0,2,7,-6,0
1509765202411089,-6,-8,-1,-2,-3,-7,1,-5
1509765202419091,-5,-8,-16,-3,0,1,-1,-2
1509765202419091,5,0,28,4,-2,-6,-6,-2
1509765202427619,-1,-9,-17,-8,-5,-4,1,-3
1509765202427619,-6,-4,7,-1,1,4,0,0
1509765202464346,-1,-7,-8,1,2,3,0,-3
1509765202464346,2,5,-6,-2,1,9,5,2
1509765202472351,-4,2,10,2,-4,-26,-12,-2
1509765202472351,3,-4,-5,-2,-2,-1,-5,-1
1509765202546928,-8,-6,9,2,0,-4,1,-2
1509765202546928,-3,-15,-5,0,-1,0,-1,-3
1509765202563948,-10,-14,-29,-6,-4,0,3,-2
1509765202563948,-7,8,2,-1,-1,-3,0,1
1509765202576949,1,3,9,2,1,1,-1,1
1509765202576949,0,5,1,2,0,-3,-1,-2
1509765202585954,11,3,-1,-13,-3,-4,0,3
1509765202585954,1,5,33,13,-4,-4,-3,-2
1509765202608970,-15,-27,-32,-12,0,-2,-3,-3
1509765202608970,-7,-2,1,3,0,4,0,0
1509765202608970,1,0,3,0,-3,-2,-4,-1
1509765202608970,-2,4,2,-2,-1,-6,-1,-2
1509765202615975,0,2,-6,1,3,6,0,-1
1509765202615975,3,-3,-5,-1,0,0,-1,1
1509765202615975,2,12,5,1,-1,0,4,2
1509765202615975,7,-14,-2,1,1,-3,-2,-1
1509765202637932,-1,-10,-12,-16,1,-1,-1,0
1509765202637932,-3,0,-3,2,0,0,-2,-2
1509765202639934,-3,-4,-6,-2,-1,2,-2,-3
1509765202639934,0,13,7,6,1,3,-1,-1
1509765202644920,4,-18,-4,0,-6,-4,-2,-1
1509765202644920,11,-8,-4,-2,-1,0,-1,0
1509765202683966,-11,22,16,4,-1,1,2,-1
1509765202683966,-6,-9,-24,-8,-3,-3,-3,-3
1509765202684948,4,-6,2,1,0,0,-1,1
1509765202684948,4,-19,-7,-3,0,0,-2,1
1509765202685947,0,40,14,3,-1,-2,0,0
1509765202685947,-6,-40,-3,-2,-1,1,-1,-2
1509765202688963,-9,-17,-10,-6,-1,1,0,-4
1509765202688963,-11,3,-4,0,-3,-3,-3,-3
1509765202704962,-1,-3,7,6,-2,2,0,-3
1509765202704962,-11,20,1,-1,-1,-7,-1,3
1509765202706963,13,-4,-3,-5,-4,-1,-2,-2
1509765202706963,-11,-7,12,26,-2,-2,-2,0
1509765202728486,4,28,-14,-36,-4,-2,-1,0
1509765202728486,-18,13,-10,1,0,3,1,-4
1509765202733987,6,-68,-20,-4,1,-1,0,1
1509765202733987,5,12,22,3,-2,0,-1,1
1509765202741994,2,3,-7,0,0,-4,-1,-4
1509765202741994,-11,-15,7,-22,-4,0,0,-4
1509765202794033,5,37,-12,15,2,-3,0,0
1509765202794033,8,-19,-10,-9,-2,2,0,0
1509765202817055,-2,3,12,7,0,-4,-3,0
1509765202817055,16,-6,12,3,-2,1,-1,0
1509765202864114,-12,-3,-8,-20,-1,1,0,-2
1509765202864114,7,15,2,2,-5,-4,-2,2
1509765202865114,2,1,-20,-13,-4,-5,0,0
1509765202865114,-5,-31,-9,14,2,-5,-2,0
1509765202869119,-4,-11,22,32,1,1,3,0
1509765202869119,-2,-8,11,-26,-3,1,-1,0
1509765202886130,-4,-10,-1,10,0,0,-2,1
1509765202886130,-1,-3,20,16,1,0,0,-1
1509765202888132,-4,0,19,1,-1,-3,-2,-3
1509765202888132,2,-11,-35,-8,-1,2,-1,-1
1509765202892134,0,0,7,-1,1,2,-1,-2
1509765202892134,-2,-7,-1,2,-4,-5,-2,1
1509765202894137,0,20,4,17,-3,-1,-1,-1
1509765202894137,2,-3,0,-28,1,1,-1,0
1509765202939173,-6,-7,-2,8,1,-5,-2,-2
1509765202939173,11,9,-8,2,2,5,2,-1
1509765202940173,8,-10,7,-3,-3,-1,-1,1
1509765202940173,-11,11,13,6,-1,-1,-1,-3
1509765202941174,-1,-5,-14,-8,0,0,-1,0
1509765202941174,-3,3,4,0,-1,-1,1,2
1509765202946178,5,-3,6,-1,-6,-4,-5,-3
1509765202946178,4,-1,-42,3,2,3,2,0
1509765202947180,-3,-10,51,-23,-8,-3,-2,-4
1509765202947180,-7,-4,2,-9,-7,-5,-2,-2
1509765202968193,-2,-6,-5,4,0,-3,-2,-2
1509765202968193,-2,-2,-1,1,-2,-1,1,0
1509765202975198,0,-2,-13,7,0,1,0,2
1509765202975198,1,1,2,1,1,1,-1,-1
1509765202976199,-3,4,4,-10,-4,-3,-2,-1
1509765202976199,-7,-6,0,0,0,0,-2,-1
1509765202983204,7,10,-2,2,0,-3,-2,2
1509765202983204,-5,-3,-1,2,0,4,-2,-3
1509765202991211,-1,5,-13,2,6,2,0,1
1509765202991211,-2,-1,12,-4,-3,-2,-2,-3
1509765203028257,-4,-11,-19,-12,-3,-3,-1,-2
1509765203028257,-4,-6,-8,6,-2,-5,-1,-1
1509765203028759,-3,8,4,-1,-4,2,0,-1
1509765203028759,3,-4,-4,-5,0,-2,-2,0
1509765203072853,0,0,6,1,-5,0,-2,-2
1509765203072853,1,3,4,3,5,1,1,-1
1509765203124414,6,5,9,2,1,-3,2,1
1509765203124414,3,10,-2,7,-2,0,2,0
1509765203150018,-13,-11,10,14,8,2,1,0
1509765203150018,-7,-10,-52,-26,-4,-4,-3,-2
1509765203150018,2,-1,2,-3,-3,-2,-2,0
1509765203150018,-3,-4,-1,-1,-1,-2,-4,-1
1509765203150980,2,1,-8,-1,7,0,0,0
1509765203150980,-2,-17,-2,0,-3,-2,-1,0
1509765203163001,-4,8,-6,-11,-6,-5,-2,-2
1509765203163001,3,-2,6,-1,0,-1,1,0
1509765203166003,-3,-5,-2,-9,-4,-3,-3,0
1509765203166003,0,6,11,1,-3,-1,-1,-2
1509765203176999,0,-5,-4,5,5,2,-1,0
1509765203176999,-3,-6,-6,-3,2,1,-2,0
1509765203202015,0,-6,1,4,-2,-3,-1,-2
1509765203202015,-1,2,12,-3,-1,-2,-2,-1
1509765203203017,3,6,-14,1,-2,-1,0,0
1509765203203017,-2,-4,11,-1,-4,-1,-1,-3
1509765203222056,-1,-6,-5,-1,-2,-2,-1,-1
1509765203222056,5,2,11,7,-1,-2,0,-1
1509765203237210,-19,15,3,8,3,4,2,-2
1509765203237210,-8,-12,-41,-31,-3,3,1,-1
1509765203307250,-1,-4,-7,1,0,0,0,0
1509765203307250,-2,-1,8,-6,0,-1,0,0
1509765203308249,4,1,-3,12,-2,-2,-4,-1
1509765203308249,3,9,11,7,-1,-2,-2,-2
1509765203327287,-3,-2,-5,-10,-3,-5,-1,-2
1509765203327287,0,-1,-5,15,3,8,3,0
1509765203379842,1,-5,-13,-13,-2,-4,-4,-1
1509765203379842,-5,-1,24,4,-5,-2,-2,-3
1509765203440925,0,2,-4,-12,-1,0,-2,-1
1509765203440925,1,0,-1,-7,1,-2,-2,-3
1509765203441907,1,1,11,4,-3,-2,-2,-1
1509765203441907,3,-4,-6,-9,-3,3,-1,1
1509765203442912,-1,4,11,2,0,0,-1,0
1509765203442912,-1,-8,-7,-1,-2,-1,-2,-2
1509765203470929,-3,-9,-19,-4,-2,-3,-2,-3
1509765203470929,-1,-4,-9,-1,-5,-5,-2,-1
1509765203471928,0,8,46,-4,-2,0,-1,-3
1509765203471928,-1,-7,-27,0,-2,1,1,-2
1509765203483938,-2,-3,6,-1,-2,-1,0,0
1509765203483938,-4,-2,-13,-2,0,-2,-2,-1
1509765203500968,-1,-2,-13,-1,-1,-1,0,-1
1509765203500968,1,1,21,-1,-3,0,-1,0
1509765203502969,-1,-1,-11,-4,0,-2,0,1
1509765203502969,4,4,-1,4,0,0,0,-1
1509765203503952,-11,14,13,-4,1,2,-1,-1
1509765203503952,-2,-13,-20,0,0,0,-1,-2
1509765203514959,4,-17,-8,-5,-3,0,-1,-1
1509765203514959,-1,11,20,6,-4,-2,-3,-2
1509765203515960,6,4,-1,6,-3,1,0,-1
1509765203515960,-1,-1,-14,-12,1,-1,-1,-2
1509765203521466,-3,-6,-8,-6,0,-1,-1,0
1509765203521466,-5,-2,9,-3,-2,-5,-2,-2
1509765203536978,0,-5,-12,-1,-3,0,-2,0
1509765203536978,1,3,13,4,0,1,0,0
1509765203543983,-1,0,-6,-2,-1,-2,-1,-1
1509765203543983,0,4,13,-4,2,3,0,-1
1509765203544984,2,1,-4,5,0,-1,-2,-2
1509765203544984,-3,-7,-25,-6,-2,-1,0,-1
1509765203575006,0,3,29,4,-2,0,-2,1
1509765203575006,-2,-7,-9,-3,-3,-3,-4,-3
1509765203576010,-1,0,6,-4,-2,-2,-3,-3
1509765203576010,0,3,7,12,1,4,1,0
1509765203607038,-3,1,-10,-6,0,-3,-2,-1
1509765203607038,0,1,-5,1,-4,-3,-1,-1
1509765203626593,1,-4,-6,0,1,0,-2,2
1509765203626593,-1,5,10,-6,-3,-3,-2,-1
1509765203718906,-2,-5,-11,1,-1,-2,0,-3
1509765203718906,-2,4,6,4,-2,-1,-1,0
1509765203718906,-1,-8,-15,-9,-2,-1,-2,-2
1509765203718906,6,-16,-3,0,-3,-4,-1,-1
1509765203725920,-29,-7,6,0,1,-1,0,-5
1509765203725920,3,4,-6,2,2,-2,0,0
1509765203726420,0,-2,-8,-4,-2,-1,1,-2
1509765203726420,0,-2,-3,1,-2,-2,-1,-1
1509765203727419,3,3,1,-5,0,-3,-1,1
1509765203727419,-15,-5,-12,-3,-2,-3,1,-1
1509765203761946,0,2,1,-4,-3,-3,-4,0
1509765203761946,-2,2,3,1,1,1,0,0
1509765203769962,7,-3,-4,7,-2,-1,0,0
1509765203769962,1,1,11,-5,-4,-2,-4,-3
1509765203784973,0,-6,-23,-5,1,2,1,1
1509765203784973,-3,4,18,2,0,1,0,1
1509765203786965,2,1,-6,-2,0,2,-1,0
1509765203786965,1,-12,-11,7,-1,-3,0,-2
1509765203837644,-7,0,-15,-23,-7,-4,-4,-2
1509765203837644,3,0,8,-3,1,-4,-2,-1
1509765203839641,0,-2,-3,-2,0,-4,1,-1
1509765203839641,3,5,8,2,-2,1,-1,0
1509765203851650,1,5,8,10,-2,-1,0,0
1509765203851650,1,1,-10,-8,-3,-2,1,-1
1509765203906682,-3,-8,-1,-6,-2,-3,1,-1
1509765203906682,2,2,0,3,-2,0,-2,-1
1509765203980826,0,-4,16,-5,-3,-5,-2,0
1509765203980826,-9,-3,-11,3,2,-1,-1,-1
1509765203980826,0,-2,-6,-17,-4,-3,-2,0
1509765203980826,-1,3,-17,-1,1,1,2,0
1509765204026395,-3,-9,19,-4,-2,-2,-1,-1
1509765204026395,0,-1,-2,-3,-2,-2,-1,-2
1509765204028381,-2,-3,-9,-7,-1,-2,-1,-1
1509765204028381,1,3,-10,-2,-2,-3,0,1
1509765204028881,-4,-7,-8,-11,3,1,0,-2
1509765204028881,4,1,-6,-1,0,0,-2,0
1509765204033901,-10,3,2,-3,-2,7,1,1
1509765204033901,-2,-2,-1,-1,-1,1,-1,-3
1509765204035402,0,2,13,9,-7,-4,0,0
1509765204035402,7,-1,-17,-14,1,0,-2,-1
1509765204054981,-1,-4,-2,-12,-3,-2,-1,0
1509765204054981,-2,1,-1,1,-4,-3,-2,-3
1509765204055966,0,-1,2,-1,-5,-1,-1,-1
1509765204055966,0,2,15,2,6,3,1,1
1509765204070974,3,2,3,-5,-2,-2,-2,0
1509765204070974,1,-2,-3,2,-2,0,0,0
1509765204070974,-7,3,-15,0,1,0,1,-2
1509765204070974,-3,-3,4,-7,-5,0,0,-1
1509765204116006,0,-2,-1,0,-1,2,0,-2
1509765204116006,0,3,7,3,0,0,-2,0
1509765204117009,3,-1,12,0,2,0,0,-1
1509765204117009,-4,-8,-24,-8,-4,-2,-2,-2
1509765204119008,10,-1,1,0,1,-1,-1,0
1509765204119008,-14,0,18,13,-2,-5,-3,-3
1509765204234156,5,1,3,-15,2,-6,-3,0
1509765204234156,-8,0,5,-5,-4,0,-2,-2
1509765204244222,0,-8,-6,-2,2,1,1,0
1509765204244222,5,-2,-5,9,6,1,2,-1
1509765204257248,1,0,0,6,-8,-4,-2,0
1509765204257248,0,0,-5,-3,1,-1,-2,1
1509765204274243,3,1,-1,-9,-2,2,0,0
1509765204274243,-2,-1,-5,-5,-3,-3,-1,-1
1509765204274243,-9,-7,3,2,-2,-4,-1,0
1509765204274243,-2,1,-2,-4,-2,3,0,-1
1509765204288254,0,-10,-6,-6,-5,-5,-4,0
1509765204288254,-15,2,-20,-4,-1,3,-1,-3
1509765204289272,-2,5,40,2,-5,-3,-1,-1
1509765204289272,3,2,-5,9,8,0,-2,0
1509765204310277,-4,-2,5,2,-1,-4,-1,-2
1509765204310277,2,-2,-8,-6,-2,-3,-3,-1
1509765204311280,0,-1,-18,-3,0,5,1,-1
1509765204311280,4,0,4,1,-7,-2,-2,0
1509765204334797,-1,0,6,6,2,1,-1,-1
1509765204334797,4,2,-1,-7,-6,-4,-2,-1
1509765204335808,-15,-1,-9,3,2,-3,-2,-2
1509765204335808,1,-1,5,-6,-6,-2,-2,-3
1509765204340364,1,-3,2,2,1,-4,0,-1
1509765204340364,-2,12,11,7,2,4,-1,1
1509765204340364,4,-5,-8,-9,-4,1,-2,0
1509765204340364,-3,-2,-7,-6,-3,0,1,-1
1509765204347361,-1,2,6,8,-3,-4,-1,0
1509765204347361,0,-3,16,24,1,-7,-1,-1
1509765204348362,2,4,-12,-30,-1,-1,-1,2
1509765204348362,-1,-15,-16,1,-5,-1,-1,-1
1509765204370390,-3,-1,14,-5,0,2,-2,-1
1509765204370390,3,-2,-19,-8,-2,-2,0,-1
1509765204370390,-11,5,11,8,1,-1,-1,-4
1509765204370390,-12,-9,-4,0,-4,-3,-3,-4
1509765204392406,-8,2,23,-6,-1,0,-1,-3
1509765204392406,2,1,-6,-2,1,0,-2,-2
1509765204393403,5,-5,8,-1,-3,-3,-2,0
1509765204393403,-7,-9,-6,-2,-1,1,-1,-1
1509765204438564,-4,-1,3,7,2,1,1,0
1509765204438564,1,4,-6,-7,-4,-5,-4,-2
1509765204439555,2,-3,-5,3,1,-5,0,-1
1509765204439555,1,9,19,4,0,3,0,-1
1509765204441561,2,-1,-6,-1,-3,-3,-1,1
1509765204441561,0,3,7,-1,1,-5,-1,0
1509765204459600,5,-4,-12,1,-1,-1,-1,0
1509765204459600,1,2,2,0,-1,-1,-1,0
1509765204543702,1,-7,-8,-2,0,0,-1,-2
1509765204543702,6,15,9,-3,-1,0,-1,0
1509765204544699,-7,-20,-3,3,-2,-1,-2,1
1509765204544699,6,-10,-9,-2,-1,-2,-1,0
1509765204551696,-8,13,-3,-7,-2,2,1,1
1509765204551696,8,3,11,16,0,0,-1,-1
1509765204552694,0,3,-4,-10,4,3,1,-2
1509765204552694,-4,-28,-6,2,-2,-5,-3,-1
1509765204553696,1,-9,-3,-4,-1,0,0,-2
1509765204553696,3,20,-5,-33,-9,-4,-2,1
1509765204580714,3,0,-11,-10,0,-2,-2,-2
1509765204580714,-21,0,11,3,2,1,-1,-2
1509765204582715,-5,11,-15,-10,-4,-4,-1,-3
1509765204582715,3,-7,0,-8,-1,-1,0,-3
1509765204583727,-22,-41,-10,9,4,2,1,-5
1509765204583727,4,79,6,10,2,1,1,7
1509765204625765,-5,-29,3,5,-1,-2,-1,0
1509765204625765,6,-13,4,4,-11,-5,-3,-4
1509765204654858,5,29,-4,-34,3,-3,-1,2
1509765204654858,5,-6,-7,6,-6,1,1,-5
1509765204714900,18,9,-8,-5,0,-5,-2,1
1509765204714900,-11,34,-5,-3,-4,3,1,-1
1509765204804157,13,0,0,10,-3,-1,1,0
1509765204804157,-7,-46,5,2,-1,-1,-3,-4
1509765204821178,-1,34,1,7,-7,-3,-3,-2
1509765204821178,0,-9,-3,-11,6,2,0,0
1509765204823193,-5,-28,-3,1,0,2,2,0
1509765204823193,-10,6,2,2,3,0,-1,1
1509765204823682,-5,-21,7,-2,-6,-6,-2,0
1509765204823682,4,-5,-12,7,-3,-4,-2,-4
1509765204829688,0,20,-4,-2,-1,3,3,0
1509765204829688,0,2,-2,-6,-3,2,-2,1
1509765204831688,10,-4,-4,-8,-6,-1,-2,-4
1509765204831688,-7,3,7,8,-3,-3,-2,-2
1509765204863742,4,-6,-8,5,-13,-8,-3,0
1509765204863742,2,-5,-13,-24,10,4,3,3
1509765204886761,-1,-4,4,7,-2,-2,-2,-3
1509765204886761,4,-10,-9,1,-1,-7,-2,-3
1509765204911766,2,5,6,0,-4,-2,1,0
1509765204911766,3,12,9,-8,-10,-3,1,2
1509765204911766,0,-2,5,7,0,0,0,0
1509765204911766,-4,0,-25,-20,-7,-1,0,-1
1509765204913772,-8,9,-2,6,9,1,-2,-3
1509765204913772,16,-8,1,3,-4,2,1,5
1509765204925800,-10,5,1,-10,-3,-2,-2,-4
1509765204925800,2,-2,0,0,-1,1,-2,-1
1509765204934305,-17,-12,-7,-4,-6,-4,0,-2
1509765204934305,1,4,3,3,2,3,2,0
1509765204935827,10,-5,-5,-1,-3,2,-3,-2
1509765204935827,2,9,0,2,3,3,0,-1
1509765204938327,-1,-8,20,23,1,-1,-1,-1
1509765204938327,-13,1,-32,-31,-5,0,0,-1
1509765204947410,2,-6,-24,-1,-3,-6,-3,-1
1509765204947410,-12,-7,2,-1,-2,-2,-2,-2
1509765205083572,-8,-35,-2,-1,-3,-2,-2,-4
1509765205083572,-4,-1,8,10,1,3,-1,0
1509765205084573,-14,15,6,3,1,-1,-3,0
1509765205084573,2,16,-7,-8,-4,-1,-2,-3
1509765205086575,-8,-27,-14,-6,0,-2,-2,0
1509765205086575,1,8,11,4,-2,1,-1,-2
1509765205106588,1,-3,-1,-5,5,3,0,-1
1509765205106588,-1,-5,5,3,0,-2,-1,-1
1509765205107592,17,-5,-2,-5,-3,-4,-3,0
1509765205107592,-5,0,3,3,-9,-2,-3,-3
1509765205108591,-3,-10,8,-3,-1,-2,-3,-4
1509765205108591,-5,-1,-13,-3,-5,-1,-2,0
1509765205114596,0,-4,-13,-1,0,0,0,-1
1509765205114596,-1,-11,17,4,1,-2,-1,0
1509765205115596,2,2,-10,-2,0,0,0,-1
1509765205115596,-17,0,1,-5,-6,1,-1,-3
1509765205204162,6,-2,-5,-1,2,-1,0,0
1509765205204162,-7,-6,-2,2,3,6,1,-1
1509765205204162,-4,0,4,-1,0,0,-1,-3
1509765205204162,5,-1,-3,-3,-4,-3,-1,2
1509765205206164,6,10,2,4,-7,-7,-2,2
1509765205206164,-11,-19,-12,-26,-1,0,0,-3
1509765205225683,4,2,0,11,2,0,-1,0
1509765205225683,-3,-15,6,-1,-1,1,-1,-3
1509765205227183,-2,-8,-3,-7,-4,-3,0,0
1509765205227183,0,-6,-5,-1,0,0,-2,-2
1509765205345067,-6,-4,-31,-14,-3,-4,-5,-5
1509765205345067,2,-2,7,3,-1,-1,-3,0
1509765205383092,-8,2,28,-3,-2,-2,-2,-1
1509765205383092,12,-24,-11,7,0,-1,0,2
1509765205384093,-5,26,10,2,-2,-1,-2,0
1509765205384093,-4,8,-5,-4,-4,0,0,0
1509765205444138,1,-8,-14,-2,1,-3,-2,-3
1509765205444138,-19,-6,9,3,0,1,-2,-4
1509765205445139,-10,-1,0,-2,1,2,0,-1
1509765205445139,-2,6,-6,0,-1,-4,-2,-1
1509765205445139,-20,4,6,0,-2,-2,-1,-4
1509765205445139,-4,-9,-2,0,0,1,-1,-3
1509765205472158,2,2,0,-5,-4,-5,-2,-1
1509765205472158,-3,-4,-1,-1,-2,-3,-2,-2
1509765205547771,8,3,-2,-4,-4,7,1,3
1509765205547771,8,-15,-2,2,8,-1,19,8
1509765205548772,-11,20,4,0,-4,-9,-12,-7
1509765205548772,-8,-22,-3,-5,-2,11,0,-5
1509765205690936,11,-2,1,-1,0,-3,11,5
1509765205690936,-1,-8,-3,-3,-1,-10,8,6
1509765205691931,-2,11,0,2,3,4,1,1
1509765205691931,4,-6,-2,-3,-4,-9,-7,-3
1509765205692933,0,3,-2,-3,-2,-4,1,-1
1509765205692933,-9,4,-1,-1,-2,-1,-3,-1
1509765205693938,2,-4,2,14,4,0,2,0
1509765205693938,-10,-2,42,-11,-4,-8,-9,-5
1509765205698940,-19,7,19,0,-2,-2,-1,-6
1509765205698940,1,14,-7,-29,-8,-5,0,1
1509765205700938,2,9,6,-4,-5,-3,-3,-1
1509765205700938,-4,-1,8,0,-6,-2,0,0
1509765205718950,-1,17,-13,1,6,-1,-2,0
1509765205718950,-7,-26,0,-4,-1,3,-2,-3
1509765205745075,8,-11,-14,-6,0,-6,-2,-1
1509765205745075,-18,7,-12,-4,-1,1,0,-3
1509765205745075,3,16,5,-2,-4,-3,1,-1
1509765205745075,-1,-2,16,6,-4,-3,-3,0
1509765205849258,0,-8,2,6,0,3,-2,-1
1509765205849258,5,13,17,0,4,7,0,-1
1509765205849258,4,12,-30,6,-3,-2,1,2
1509765205849258,-12,-4,9,-4,0,0,0,-4
1509765205851262,-8,-26,-19,-10,-2,1,-1,-1
1509765205851262,-4,25,6,-2,1,-2,-1,0
1509765205871294,21,-2,-10,1,0,1,1,2
1509765205871294,-3,-34,7,1,-2,-1,-4,-3
1509765205873280,0,38,-9,-5,0,-4,-2,-1
1509765205873280,-13,-15,-5,2,1,-1,0,0
1509765205874283,2,-12,13,15,9,4,-1,0
1509765205874283,-8,6,-25,-26,-1,2,-1,0
1509765205939349,-2,0,26,11,3,0,-1,1
1509765205939349,2,-11,-28,-5,-1,0,-1,-2
1509765205940726,-8,8,7,8,-5,-1,0,2
1509765205940726,7,3,6,7,-1,-3,0,1
1509765205941729,12,1,-3,-6,3,3,1,0
1509765205941729,-8,-3,5,4,-1,-1,-1,-3
1509765205945729,-2,0,2,-5,-3,-2,-3,-3
1509765205945729,0,-1,-2,6,2,1,2,0
1509765205951732,1,1,-4,-3,-3,-1,-1,0
1509765205951732,1,-1,4,-4,-1,-3,-2,1
1509765205975764,-2,1,2,2,1,5,7,0
1509765205975764,1,5,11,4,-3,-2,-4,0
1509765205977752,-3,-6,-18,-10,-5,-6,-8,-1
1509765205977752,-1,2,7,5,0,-4,-2,0
1509765205978765,-2,-1,23,3,-2,3,10,0
1509765205978765,-6,-5,-27,-2,-5,-14,-9,-4
1509765205990761,-6,-4,-3,-2,1,1,-8,-1
1509765205990761,2,-2,-6,0,-1,5,-2,1
1509765205991762,-1,7,-11,-9,-1,6,-8,-3
1509765205991762,1,5,39,6,4,22,24,7
1509765206037314,-2,3,24,-3,-7,-35,-18,-5
1509765206037314,-3,-7,-35,0,-1,-7,-3,-5
1509765206038314,1,-1,-1,-1,0,-4,-7,1
1509765206038314,-9,-10,-46,-12,-6,-4,-5,-4
1509765206042808,16,12,19,4,1,13,11,1
1509765206042808,1,0,25,2,-2,-1,1,-1
1509765206176923,5,2,-11,0,-1,-1,-4,-1
1509765206176923,-5,7,4,0,0,1,-3,-2
1509765206194931,0,2,-5,-4,-5,-1,2,-1
1509765206194931,-1,-16,-9,-5,-2,-5,-9,-2
1509765206195935,-9,-8,-15,2,4,1,2,0
1509765206195935,3,-3,-7,-2,1,4,3,1
1509765206206945,-4,4,3,24,-5,-4,-2,-1
1509765206206945,-3,-12,10,-38,-1,-6,-6,-2
1509765206214949,-15,8,-7,-15,-2,2,-1,-2
1509765206214949,3,-8,1,11,1,-5,-1,0
1509765206245996,1,-5,-9,-2,-1,0,-1,-1
1509765206245996,-8,-9,6,5,3,-2,0,-1
1509765206245996,3,16,12,-26,-4,-4,-4,-4
1509765206245996,9,15,-14,24,7,-2,-3,0
1509765206253012,-4,-22,-12,-9,-2,2,0,-3
1509765206253012,-3,0,2,-4,1,1,0,-1
1509765206253997,5,-7,-18,-6,-7,-4,-2,3
1509765206253997,3,6,30,10,-4,-6,-2,0
1509765206256014,0,10,13,2,1,-1,1,-1
1509765206256014,-1,-1,-6,2,2,6,3,1
1509765206274017,2,3,24,4,-2,-4,0,0
1509765206274017,0,-7,-37,-14,-5,6,1,0
1509765206291022,0,-5,1,-4,-8,-24,-11,-4
1509765206291022,-7,-3,-6,4,0,-1,-6,-3
1509765206292040,3,5,-1,-4,3,2,2,-1
1509765206292040,-6,-4,5,0,1,-1,-2,-3
1509765206298026,2,4,1,5,1,5,4,3
1509765206298026,-3,3,-11,-9,-1,0,0,-5
1509765206454910,1,-4,-10,14,0,-1,-2,-1
1509765206454910,-3,-3,6,-11,-4,-4,1,0
1509765206470939,4,3,3,4,3,0,0,-1
1509765206470939,2,-9,-18,-2,-4,-6,-2,-2
1509765206471921,4,5,-42,-7,0,1,-1,-1
1509765206471921,-9,-7,49,-7,-4,1,0,-3
1509765206473926,-6,-6,3,1,-3,-7,-8,-3
1509765206473926,0,0,9,0,0,-1,3,-1
1509765206484933,0,-3,-3,0,-4,-3,-8,-2
1509765206484933,2,7,-13,-5,10,4,1,0
1509765206485931,1,-4,0,-3,-1,-4,-4,-2
1509765206485931,0,-2,7,4,-1,6,0,-1
1509765206492936,4,2,1,1,3,9,6,1
1509765206492936,-1,-3,-9,-1,-1,-5,0,0
1509765206493937,-9,5,12,2,2,8,-1,-3
1509765206493937,1,2,0,5,-5,-7,-5,1
1509765206499945,6,-6,0,-8,4,2,1,-1
1509765206499945,-2,9,1,5,-1,-3,-1,-1
1509765206529990,6,-7,-3,-12,-3,2,-2,-2
1509765206529990,-19,8,-14,-7,-6,-9,-1,-2
1509765206537473,-6,-4,2,7,-3,-2,-2,-4
1509765206537473,16,-2,0,-1,-2,0,0,0
1509765206538471,1,-1,-5,-5,-1,0,-1,0
1509765206538471,5,-3,0,5,-1,-6,-2,-2
1509765206560730,0,4,1,-2,-2,4,3,0
1509765206560730,-10,-7,2,4,1,-1,-2,-1
1509765206561733,-4,10,-3,-2,-4,-11,-3,-3
1509765206561733,2,-7,-4,-1,-2,-5,-4,-1
1509765206562733,-5,-6,-5,-5,0,0,1,-1
1509765206562733,-3,1,7,-8,-3,1,0,-3
1509765206574741,0,-12,0,6,-3,-4,-6,-2
1509765206574741,-4,-1,0,-5,2,0,-1,0
1509765206589752,-4,-10,-6,-1,-3,0,2,0
1509765206589752,-4,6,3,-3,-2,-4,-3,-2
1509765206597770,2,1,-6,-4,-1,-1,-2,0
1509765206597770,-1,-1,4,7,0,-1,1,-1
1509765206598757,-2,-2,-4,-6,0,2,0,-1
1509765206598757,0,3,4,2,-4,-5,-2,0
1509765206611796,0,8,2,-2,-3,3,3,1
1509765206611796,-3,-10,1,3,0,1,-1,-2
1509765206657286,1,-8,-9,4,0,0,-1,2
1509765206657286,-7,3,7,-8,-6,-2,-1,-3
1509765206658286,-17,13,-1,0,0,5,1,-3
1509765206658286,-4,-1,-1,0,2,-5,-4,-1
1509765206748363,-2,3,2,3,0,2,0,-3
1509765206748363,-1,-5,5,0,-1,-1,-1,0
1509765206749360,5,3,1,-4,0,1,0,0
1509765206749360,-12,-20,-26,-3,-3,1,-1,-2
1509765206751368,1,-7,6,7,1,-5,-10,-2
1509765206751368,-1,-1,-12,-3,-2,5,3,-2
1509765206763383,-1,-6,19,-2,0,1,-3,0
1509765206763383,-6,-18,-27,-2,-1,2,1,-1
1509765206770388,0,-9,2,-4,2,-2,1,1
1509765206770388,2,1,-1,-4,-1,-1,-4,0
1509765206771389,2,-7,5,-2,-6,-2,-2,-1
1509765206771389,-7,21,1,0,-1,-4,-1,-3
1509765206773377,-2,2,11,16,-3,-1,1,-1
1509765206773377,-6,-4,-8,-24,-2,-5,-5,-2
1509765206785396,1,-5,-2,-5,-2,-1,0,-2
1509765206785396,1,1,8,3,3,-3,-2,0
1509765206786397,0,-11,-8,-4,-2,-2,-2,-3
1509765206786397,2,7,6,8,-1,-3,-1,-1
1509765206800407,4,-5,-8,0,0,0,1,0
1509765206800407,-3,-1,-1,-6,1,3,4,-1
1509765206801398,-4,0,1,2,0,-5,-9,-1
1509765206801398,0,0,0,1,-4,-1,-3,-3
1509765206822412,-2,1,1,-6,-4,0,3,-1
1509765206822412,1,-8,-2,3,-5,-8,-8,-1
1509765206824414,0,3,-18,-9,0,2,2,1
1509765206824414,-2,-7,-10,10,12,1,-2,0
1509765206860034,1,2,-21,1,-2,6,-1,-1
1509765206860034,2,-6,7,-7,-2,-2,0,-2
1509765206868039,-7,-4,54,-7,-5,-6,-3,-4
1509765206868039,5,-1,-62,-1,0,4,4,1
1509765206869041,-8,-4,62,1,-2,-2,-5,-4
1509765206869041,5,-5,-29,-6,-1,1,0,2
1509765206870031,-6,-12,-53,2,5,2,1,-2
1509765206870031,-5,-2,18,0,-5,-2,0,-1
1509765206914075,7,15,10,2,1,-5,-2,-2
1509765206914075,-12,-21,3,13,-1,1,-3,-2
1509765206915078,6,0,-2,-23,-3,-1,-2,1
1509765206915078,-9,4,4,3,0,-1,-1,-4
1509765206916064,-8,2,-21,0,-1,-1,-2,0
1509765206916064,0,-5,-9,-8,-1,-1,-1,-2
1509765206929083,-1,17,-6,8,-1,0,2,1
1509765206929083,3,-6,13,-1,-8,-13,-5,-1
1509765206930096,-4,-5,-11,6,4,1,-1,0
1509765206930096,-1,3,19,1,-3,-9,-8,-2
1509765207026707,-3,-5,-11,-4,-5,-7,-2,-1
1509765207026707,1,1,-4,-1,-3,2,2,2
1509765207028189,6,-2,3,-5,-3,4,2,1
1509765207028189,-4,1,18,2,-2,-6,-1,-2
1509765207029207,0,-1,-11,1,1,-1,-4,0
1509765207029207,4,3,-4,2,3,3,1,-1
1509765207040196,-2,-8,10,-5,-4,3,5,0
1509765207040196,-1,5,-2,-2,-3,-7,-1,-2
1509765207048337,-1,-3,-12,-3,2,-3,-5,-2
1509765207048337,2,0,6,-1,-1,-3,-4,1
1509765207049319,-1,3,12,4,-2,-3,-3,0
1509765207049319,1,-6,-14,-29,-7,-5,0,-1
1509765207050320,2,-1,-1,14,5,-3,0,1
1509765207050320,-2,0,-3,1,1,2,-1,0
1509765207055323,-1,-9,-1,6,-1,1,-1,-1
1509765207055323,3,-7,9,6,0,-3,2,1
1509765207056325,-12,4,-4,-2,-10,-4,-3,-2
1509765207056325,-10,-14,6,-33,-10,-2,-5,-6
1509765207077342,1,2,-19,22,22,6,2,-4
1509765207077342,-2,-34,2,-3,-2,-1,-3,0
1509765207079341,-8,1,1,20,-14,-4,-1,-1
1509765207079341,-7,23,4,-7,9,4,0,1
1509765207100363,6,-2,-13,-20,-3,0,0,-1
1509765207100363,-1,9,5,-2,-1,-9,-4,-1
1509765207101366,3,-15,-13,-7,7,5,2,-1
1509765207101366,3,-5,10,20,-17,-8,-2,-1
1509765207122387,3,-2,-3,-24,3,6,0,1
1509765207122387,-17,4,-6,16,4,4,1,0
1509765207124383,14,-5,3,-14,-2,-4,-1,1
1509765207124383,8,-4,-6,1,-1,-1,-2,-2
1509765207144592,-17,27,14,4,0,2,2,-1
1509765207144592,-2,-34,2,-4,-7,-5,-5,-5
1509765207181627,1,5,-46,-6,2,-2,-1,0
1509765207181627,-3,6,34,0,2,2,-1,-1
1509765207190636,-8,0,7,-2,-6,-2,-2,-1
1509765207190636,6,-1,5,13,-2,-3,-1,1
1509765207279012,-4,-15,16,-9,7,1,-1,-1
1509765207279012,-2,-4,-53,9,3,-5,-2,-1
1509765207310032,6,12,15,2,-4,2,-1,2
1509765207310032,1,15,10,2,3,-1,2,-1
1509765207326570,3,-18,-11,-7,-6,-7,-4,-3
1509765207326570,0,8,-36,-6,-1,0,1,1
1509765207328062,6,1,-2,1,-1,0,-1,1
1509765207328062,-2,4,6,-1,-8,-3,-2,-2
1509765207328575,-10,-4,-9,-16,-5,1,1,-2
1509765207328575,8,-3,4,5,1,-1,0,-5
1509765207333064,33,-1,-14,-5,2,0,0,4
1509765207333064,-27,-6,5,8,-4,0,-1,0
1509765207347647,-12,-5,0,-5,1,-1,-2,-4
1509765207347647,18,0,-1,-8,1,-1,-2,3
1509765207349650,15,-4,-2,4,-4,-3,-1,2
1509765207349650,-7,9,0,-1,-3,-1,2,0
1509765207378681,6,18,5,-1,0,0,-1,1
1509765207378681,1,-8,-3,-2,-3,-1,-3,0
1509765207380681,-7,-13,3,1,0,2,0,-1
1509765207380681,-4,-4,-32,-12,0,-2,-1,-4
1509765207381671,-7,1,12,5,-2,0,0,-1
1509765207381671,1,4,-2,-11,-4,-2,0,-1
1509765207401694,4,6,2,18,5,3,2,1
1509765207401694,-1,-12,-11,-11,-3,-3,1,-2
1509765207402696,-6,1,16,12,1,1,-2,-1
1509765207402696,-8,1,8,9,4,1,1,1
1509765207423717,18,-2,-10,-6,0,2,2,0
1509765207423717,-4,4,5,8,-4,-3,2,0
1509765207424711,-3,-4,-26,-21,0,2,-2,-2
1509765207424711,5,4,2,-8,-2,1,2,1
1509765207426214,1,-1,0,-3,-2,-5,-2,0
1509765207426214,-4,9,33,-2,-2,-2,-3,-2
1509765207445189,-5,-2,5,6,-2,-2,-1,-3
1509765207445189,5,-2,0,6,1,-1,-2,0
1509765207446189,0,-8,-28,-11,-3,-2,-2,-1
1509765207446189,-4,2,-6,0,0,0,-1,-3
1509765207578810,-3,-7,-3,-4,-4,-4,-3,-2
1509765207578810,-4,-4,-18,-7,-5,-1,-4,-1
1509765207595813,0,-1,-27,-2,2,-2,1,1
1509765207595813,-1,-4,18,-14,0,-2,-2,-3
1509765207601829,2,0,-14,23,2,-1,-1,0
1509765207601829,-2,-13,5,-2,2,0,-2,-3
1509765207610823,-2,-1,28,-25,-9,-8,-3,-3
1509765207610823,2,20,27,10,3,2,0,1
1509765207610823,-5,-10,-12,9,4,-1,0,-1
1509765207610823,-2,0,17,5,1,1,-1,-1
1509765207617829,-4,2,0,-2,0,-5,-1,-2
1509765207617829,1,-5,-15,-10,-1,-5,1,0
1509765207619829,-2,-3,1,7,0,1,-1,-1
1509765207619829,4,7,0,-5,-1,1,-1,1
1509765207646971,3,19,5,5,0,-1,-2,0
1509765207646971,-5,-17,-13,-3,-2,-1,-2,-4
1509765207647959,-7,11,7,2,-2,1,0,2
1509765207647959,-3,3,-4,2,-1,1,-2,-3
1509765207679982,-6,-10,1,2,0,-1,0,-2
1509765207679982,-1,7,-1,-9,-3,-3,-1,-2
1509765207679982,4,0,-2,4,-2,2,2,-2
1509765207679982,0,1,0,0,0,3,0,-1
1509765207701008,-4,-14,-8,-2,1,1,-2,-3
1509765207701008,5,0,-5,-8,-2,-6,-2,0
1509765207701997,-14,-4,6,4,-2,-3,-2,-3
1509765207701997,0,2,-2,-1,-1,-2,-1,0
1509765207704015,2,-3,7,0,-4,-2,-2,-1
1509765207704015,-4,-3,-5,-3,0,3,-2,-1
1509765207706002,2,-3,-3,-1,0,0,-3,0
1509765207706002,-2,1,-10,-3,-1,-1,-1,-3
1509765207716007,1,0,-4,0,-2,-1,2,1
1509765207716007,1,-2,7,-3,3,2,1,0
1509765207717007,0,-3,3,1,-2,-3,-1,-2
1509765207717007,-2,-2,-2,2,-2,1,-1,0
1509765207759370,4,-3,-13,-5,1,0,0,1
1509765207759370,4,4,6,-1,-2,1,1,1
1509765207760369,8,-12,-22,-6,-5,-1,-1,0
1509765207760369,-5,6,6,9,1,-3,-2,-3
1509765207859412,-14,-10,-1,2,0,0,-2,-3
1509765207859412,-23,-8,0,-7,-3,1,-4,-4
1509765207860430,-12,-2,0,3,1,-2,1,0
1509765207860430,3,5,5,-6,-5,-1,-2,0
1509765207881427,9,9,-4,-1,0,1,-2,0
1509765207881427,-1,-16,-9,-3,1,-2,2,1
1509765207882445,-2,-13,-9,4,-1,-1,-1,-1
1509765207882445,7,11,19,0,-1,-2,-2,0
1509765207882445,2,-1,-4,-3,0,2,0,1
1509765207882445,2,4,2,-6,-2,-3,-1,0
1509765207894437,1,4,2,-10,-3,-4,-2,-2
1509765207894437,9,0,6,1,-3,0,-2,2
1509765207895437,0,26,12,2,1,0,0,0
1509765207895437,5,0,-20,-14,-3,-3,-3,0
1509765207910447,-2,-10,3,15,1,4,2,0
1509765207910447,1,-17,-1,-10,-1,2,0,0
1509765207918454,11,8,0,0,-1,-3,-1,-2
1509765207918454,-5,-8,-1,0,-2,2,0,-1
1509765207919455,-7,3,4,-1,-2,-4,-1,-2
1509765207919455,1,-1,-1,-4,0,1,1,0
1509765207920455,2,-9,-8,-2,0,4,0,-2
1509765207920455,-4,1,1,3,-2,-3,-3,-1
1509765207940975,3,-18,-2,-1,-1,0,-3,-3
1509765207940975,-2,7,-6,-9,0,-3,-2,0
1509765207941473,-4,2,0,13,-3,-3,-1,0
1509765207941473,-4,-6,8,-13,-5,-3,-3,-3
1509765207956488,-4,-3,-14,10,4,1,-1,-1
1509765207956488,-3,-7,4,-15,4,4,0,0
1509765207957509,-4,5,-3,1,-1,0,-2,0
1509765207957509,0,2,-4,16,2,2,-1,0
1509765207976512,19,15,14,-6,-3,1,-1,2
1509765207976512,-2,4,2,6,-1,-4,-1,-1
1509765207977503,-4,-12,-9,-1,-5,-6,-3,-1
1509765207977503,3,3,-2,-8,0,-1,0,0
1509765208000519,-6,-2,7,3,-1,-2,0,-3
1509765208000519,-2,-3,5,-4,-3,-1,-3,-2
1509765208001519,1,-3,-7,-7,-2,-1,-1,-1
1509765208001519,0,5,-7,2,-1,-2,0,1
1509765208031543,-5,-6,13,4,-1,-5,-1,-1
1509765208031543,-9,-5,-9,-11,0,-1,-1,-1
1509765208032545,0,-1,-12,-4,3,1,-2,-2
1509765208032545,1,-6,-13,-3,-2,-3,-3,-2
1509765208060125,-3,-6,-9,2,-1,7,0,-1
1509765208060125,4,1,9,-6,-7,1,3,-1
1509765208061126,-4,2,5,1,5,0,1,-1
1509765208061126,1,7,3,3,0,-1,-1,-1
1509765208135696,-3,-20,-3,-7,-6,-7,-4,-1
1509765208135696,-3,1,-8,0,-2,-4,-1,0
1509765208136187,0,-7,-1,0,-3,0,2,-1
1509765208136187,0,-2,0,-7,-2,-6,-4,-5
1509765208159609,-2,1,-5,1,0,-1,0,1
1509765208159609,-4,-11,-4,0,2,-3,-1,-3
1509765208160623,-2,-2,4,1,-2,-1,0,0
1509765208160623,-1,2,-4,-5,-3,0,-2,-1
1509765208165613,-3,0,16,-3,-2,4,-1,-2
1509765208165613,-2,-10,-16,-2,0,-3,-3,-2
1509765208166616,-3,-2,-5,-3,-3,0,-1,-2
1509765208166616,1,11,6,-5,0,4,0,1
1509765208167630,8,-3,-21,-4,2,4,0,0
1509765208167630,-2,-5,15,6,0,2,0,0
1509765208178622,2,-11,-1,1,-1,-3,-4,-1
1509765208178622,-2,-3,1,-5,-1,0,0,-1
1509765208186639,-5,-5,-4,4,1,-4,-2,-1
1509765208186639,-4,-3,-1,-5,-3,-2,-3,-2
1509765208210656,-1,-8,6,4,-1,-2,-1,-1
1509765208210656,3,-1,-10,-3,-1,-5,-2,-1
1509765208211647,5,3,-8,-9,-2,-1,0,0
1509765208211647,-2,-6,39,8,1,-5,-2,-3
1509765208232664,2,-10,-13,-2,-2,-2,0,1
1509765208232664,-6,-4,-30,1,-4,0,-2,-4
1509765208233666,0,2,13,-3,-3,0,-1,0
1509765208233666,-1,4,-14,-6,-4,-3,0,0
1509765208239670,-8,-1,16,3,5,-1,0,2
1509765208239670,3,-2,6,-1,-1,-4,0,2
1509765208240170,-6,-2,-8,4,-2,-5,-2,-2
1509765208240170,-2,3,2,-3,1,-1,-1,0
1509765208255287,2,0,-8,-6,-2,1,0,0
1509765208255287,-4,-4,0,0,3,-1,0,-1
1509765208269308,-1,2,-1,-4,1,1,1,-2
1509765208269308,2,0,4,10,1,-2,-2,-1
1509765208277312,0,-2,-10,-2,-5,-5,-3,-1
1509765208277312,0,0,9,-8,1,7,1,-1
1509765208300318,5,-2,10,15,0,-1,-2,0
1509765208300318,-16,5,-15,-16,-2,3,-1,-5
1509765208314327,0,-4,-7,-2,1,-1,-2,-2
1509765208314327,3,4,-10,0,-1,-3,0,0
1509765208412471,0,-3,33,1,-1,-2,0,1
1509765208412471,-1,1,1,-12,-7,-1,-3,-2
1509765208414471,-4,-17,-22,0,-1,-4,-1,-3
1509765208414471,-1,-3,-7,11,1,0,-1,-1
1509765208436491,4,10,-2,1,1,3,0,1
1509765208436491,4,6,-2,-2,-1,-1,0,0
1509765208437994,1,2,18,3,1,3,2,-1
1509765208437994,3,-3,-2,-2,-3,-5,-1,-1
1509765208438992,0,3,-4,-8,-1,-2,-1,-2
1509765208438992,9,4,11,15,0,-2,0,0
1509765208450002,3,-3,-8,-4,1,-2,0,-1
1509765208450002,-4,-4,-2,-2,0,-1,0,-2
1509765208451003,7,3,-6,-3,0,1,2,1
1509765208451003,-7,8,8,9,0,-2,0,-2
1509765208452004,-3,-5,-6,-3,-3,-5,-2,-1
1509765208452004,-3,-3,-2,-8,-4,-1,1,-2
1509765208473020,-1,-2,-9,2,1,2,-1,1
1509765208473020,6,0,8,2,1,1,-2,0
1509765208489031,-3,0,-1,-1,-1,-2,-1,0
1509765208489031,-7,-8,9,19,-1,-3,-3,-2
1509765208490032,-1,-9,-27,-24,2,1,0,-4
1509765208490032,1,1,-10,3,0,2,-2,-1
1509765208491032,0,0,8,-6,-3,0,-2,1
1509765208491032,-1,0,5,-6,-4,-2,-2,2
1509765208495039,-3,5,15,8,-1,-1,-2,-2
1509765208495039,3,-3,-4,0,0,-1,-1,0
1509765208518052,-4,-1,-7,-1,-2,0,0,-3
1509765208518052,-3,-5,-8,-10,0,-2,0,-1
1509765208519052,0,1,2,6,-4,-3,-3,-1
1509765208519052,-5,6,0,-4,1,5,0,1
1509765208525055,2,-6,-1,4,1,-1,-1,-1
1509765208525055,-4,1,2,-5,-4,-4,0,0
1509765208526057,-5,0,-9,-5,-3,-2,-1,-1
1509765208526057,5,2,7,3,-1,-3,1,0
1509765208539077,0,-6,-1,-12,0,0,-3,-1
1509765208539077,-2,-6,-4,9,3,1,-1,0
1509765208554638,-2,-1,-4,1,-2,-3,0,-1
1509765208554638,1,1,4,-4,-4,-1,-3,-2
1509765208629205,-1,-3,-2,4,0,1,-2,-1
1509765208629205,9,-4,-5,-9,-1,-3,0,0
1509765208691790,-3,1,0,3,-3,-4,-2,-2
1509765208691790,1,0,8,-1,-2,-1,-3,0
1509765208692791,-1,4,0,2,1,-4,-2,0
1509765208692791,-2,-8,-3,-5,-1,3,1,-1
1509765208693792,-6,-7,-10,0,0,-2,-1,-1
1509765208693792,1,3,6,-1,-4,-3,-2,1
1509765208750920,9,2,2,-2,-5,0,0,-1
1509765208750920,-4,-4,4,7,-4,-2,0,-2
1509765208751920,0,1,2,-1,-1,1,0,-1
1509765208751920,1,-6,-5,3,2,-5,-1,-3
1509765208752936,1,2,2,8,2,-1,-2,-1
1509765208752936,-3,-2,8,-15,-5,-2,-2,-2
1509765208753921,-3,-1,-6,5,-1,-2,-1,-1
1509765208753921,1,-1,-3,-1,0,0,0,-1
1509765208765941,-2,-3,-2,2,-1,3,2,-2
1509765208765941,-5,-9,2,-4,-2,-1,1,-2
1509765208786944,-2,4,1,2,-4,-1,-1,0
1509765208786944,1,-2,0,-7,-4,0,0,-1
1509765208787950,1,-6,1,3,0,-1,-1,-2
1509765208787950,-2,3,2,4,-2,0,-1,-1
1509765208803957,-1,6,15,6,-3,-3,-2,-2
1509765208803957,4,-5,-13,-2,1,0,-1,-4
1509765208804958,-1,-4,-4,-5,2,0,-1,-2
1509765208804958,-3,-4,-2,7,1,-2,0,-1
1509765208805959,-1,3,-5,-7,-4,-4,-4,0
1509765208805959,-1,0,3,-6,-4,-2,0,0
1509765208809976,0,-3,0,8,3,-8,-4,1
1509765208809976,-1,1,-1,6,-5,-1,1,0
1509765208855030,1,-1,-2,-7,-2,1,0,0
1509765208855030,-8,2,-1,-3,0,2,-1,-2
1509765208856033,-3,3,-8,7,-2,-1,-2,-1
1509765208856033,-1,1,13,2,-2,0,-2,0
1509765208872042,-9,-12,-8,-11,-4,-5,-2,-3
1509765208872042,-1,-2,4,5,1,1,-1,0
1509765208873042,1,-1,-8,-6,-1,1,0,0
1509765208873042,3,4,-2,0,-1,-1,-1,-2
1509765208969191,-1,-2,0,-2,-3,-1,1,-1
1509765208969191,1,-4,-3,1,1,-2,0,0
1509765208969191,-1,5,-3,-3,-3,0,-2,-2
1509765208969191,-6,-3,1,2,2,0,-2,1
1509765208970191,2,-4,2,0,2,3,2,0
1509765208970191,1,-3,-1,-3,0,0,-1,-2
1509765208971190,0,3,1,-3,-4,-1,-1,0
1509765208971190,0,1,-3,3,3,-1,-3,-1
1509765208975193,0,1,4,-4,-4,-1,-2,-2
1509765208975193,0,1,-4,-9,-1,-4,-1,-1
1509765208989206,3,0,4,-7,-2,-1,-1,0
1509765208989206,1,-1,-10,7,1,4,0,0
1509765208996227,-1,-8,-8,-6,0,-2,0,-2
1509765208996227,1,0,3,-2,-5,-2,-2,-1
1509765209026251,-4,-6,-5,1,0,2,-2,-2
1509765209026251,0,0,3,6,1,-1,-1,0
1509765209044304,1,3,2,-6,-2,-1,-1,0
1509765209044304,0,3,7,24,-4,4,0,-2
1509765209045305,2,-3,-14,-16,10,1,0,0
1509765209045305,-3,-6,-2,4,0,0,1,-1
1509765209049306,-1,1,2,3,-6,-1,-2,0
1509765209049306,-1,-3,1,0,3,0,0,0
1509765209065339,-2,-3,1,0,-5,1,0,0
1509765209065339,-3,-5,-3,-6,-3,-3,-1,-1
1509765209066322,2,2,0,5,-2,0,-2,0
1509765209066322,0,-1,-4,-12,-1,-2,-1,-1
1509765209094359,1,-3,1,1,-2,-5,-1,-1
1509765209094359,-12,2,3,2,0,-1,0,-3
1509765209124363,1,1,-2,-2,-2,-2,-2,-1
1509765209124363,5,-5,-1,-3,0,2,-1,-2
1509765209131909,-6,6,4,4,-1,0,0,2
1509765209131909,0,-10,-5,-6,-8,-5,-3,-1
1509765209260827,-2,1,-2,6,4,-2,0,0
1509765209260827,-1,-1,-3,7,4,2,1,-2
1509765209261810,2,-4,-12,-17,-2,-2,-1,-3
1509765209261810,1,-1,0,-5,0,-1,-1,-1
1509765209263822,-1,4,3,2,-2,2,-1,-1
1509765209263822,1,-3,2,4,-1,-3,-4,0
1509765209267823,-10,-10,1,3,-1,-1,-1,-1
1509765209267823,10,11,1,2,0,2,0,0
1509765209270814,-1,-2,-23,-32,1,1,0,0
1509765209270814,-1,-2,-1,-6,-3,-2,1,-1
1509765209288826,1,-2,5,2,2,3,0,-1
1509765209288826,-2,-1,-2,-2,2,2,0,-2
1509765209306841,-4,7,0,7,1,3,0,-2
1509765209306841,1,-10,-7,-6,-1,-1,-1,0
1509765209307841,-3,-4,2,8,-3,-1,-3,-1
1509765209307841,-1,-3,-1,-5,-2,-3,-2,-1
1509765209320850,-3,-2,1,-5,-2,-1,-3,-3
1509765209320850,8,-3,-8,-9,-2,-5,-1,0
1509765209321854,-9,0,3,1,-1,1,0,-1
1509765209321854,-1,-1,0,2,-2,0,0,0
1509765209342368,-1,0,1,-1,-3,-3,-2,-1
1509765209342368,2,-4,-5,-7,-1,-2,-2,-1
1509765209342871,0,-4,5,5,0,-3,-1,-2
1509765209342871,-13,-15,-2,1,0,-1,0,-1
1509765209350283,-1,2,-7,-6,-2,-5,-2,-1
1509765209350283,-3,-1,-11,-3,0,1,2,-2
1509765209365317,4,2,10,6,1,3,1,3
1509765209365317,-5,0,2,-3,-1,-2,-4,-2
1509765209366299,1,-5,-4,-2,-1,-3,-2,0
1509765209366299,-2,3,3,-6,-2,0,-2,-1
1509765209380305,-3,-10,-9,-1,-4,-9,-5,-3
1509765209380305,3,3,3,6,4,2,2,0
1509765209381306,0,1,-2,-2,-1,0,-1,-1
1509765209381306,-1,2,-1,0,0,-4,1,-1
1509765209506424,-3,-1,11,1,-1,1,-2,0
1509765209506424,0,-2,-8,-5,-4,-6,-4,-2
1509765209524436,1,3,1,0,-1,2,-2,-1
1509765209524436,-1,-3,4,-3,-3,-3,-2,0
1509765209525437,3,-1,-6,3,3,0,1,0
1509765209525437,-1,-1,-5,0,-1,-1,0,0
1509765209546461,0,0,-5,-3,-2,-1,-2,0
1509765209546461,1,-1,1,-2,-2,0,-1,-2
1509765209547462,0,-2,15,1,-3,-2,-1,0
1509765209547462,0,0,-3,-4,-4,0,-2,-2
1509765209547462,1,-1,-7,6,2,4,4,0
1509765209547462,3,0,3,1,-1,1,2,-1
1509765209552467,-2,-2,-8,-3,-5,-5,-3,-2
1509765209552467,-4,-1,4,-7,-2,-6,-10,-3
1509765209560471,0,-2,0,0,2,13,2,-1
1509765209560471,-1,-6,5,-1,-5,-25,-3,-5
1509765209573497,15,18,-2,3,0,-1,-2,4
1509765209573497,1,-1,-8,-3,0,1,5,-1
1509765209597513,-1,-4,0,-3,-2,1,0,-2
1509765209597513,7,11,-2,-3,1,6,1,1
1509765209599526,-4,-3,5,0,0,0,0,0
1509765209599526,-1,2,-1,0,0,0,-1,1
1509765209628043,1,1,0,-4,0,-5,-3,0
1509765209628043,-2,-5,-1,2,2,3,-1,-1
1509765209644551,-6,-3,-5,-3,-4,-1,-3,-4
1509765209644551,-1,-1,1,2,2,4,0,1
1509765209645547,-6,-2,6,-4,-3,-3,-1,-2
1509765209645547,-4,0,3,10,-6,-3,-4,-2
1509765209665574,-4,-1,-5,-22,-1,-3,-2,-3
1509765209665574,-2,-4,-10,7,7,-3,-1,-1
1509765209666572,1,-4,7,-6,-6,-4,-1,-1
1509765209666572,-5,-5,-13,9,4,6,2,-1
1509765209688578,0,-3,-11,-7,-2,-6,-2,-1
1509765209688578,0,0,4,-3,-3,3,-1,0
1509765209708622,0,-8,-11,0,-4,-2,-1,-1
1509765209708622,6,-5,-8,-5,-1,-1,-2,0
1509765209731653,1,-3,-8,4,1,0,-1,-1
1509765209731653,-5,1,11,-7,-2,-3,-2,-1
1509765209801242,0,-2,-9,0,-1,-1,0,-2
1509765209801242,-7,-8,-6,-3,-1,5,1,0
1509765209803244,8,13,0,2,2,3,0,0
1509765209803244,-1,0,0,2,0,1,0,-1
1509765209804229,-6,-8,0,3,0,-4,-1,0
1509765209804229,1,5,0,-4,-2,-1,1,-1
1509765209815253,1,-3,-1,-1,0,-2,0,-1
1509765209815253,1,0,-8,-3,0,2,0,-1
1509765209816236,4,-3,5,-1,-2,-6,-2,-1
1509765209816236,-18,0,2,2,-1,0,-1,-5
1509765209845579,0,1,-3,2,0,-3,-2,1
1509765209845579,-3,-3,0,1,1,2,1,-1
1509765209846580,-2,0,-8,-4,-1,1,-2,0
1509765209846580,2,-4,-2,-2,-1,-1,-1,-1
1509765209851583,-1,-2,5,-2,1,0,2,0
1509765209851583,-3,-1,-3,-2,0,-3,-1,-2
1509765209899608,-3,0,-4,0,-1,-1,-1,0
1509765209899608,4,-1,5,1,-3,-3,-2,0
1509765209900618,-3,-6,-3,-3,-1,-1,-1,-2
1509765209900618,0,0,-2,-2,-1,-3,-2,-1
1509765209903622,-3,-1,-3,1,-1,-1,-1,-2
1509765209903622,-1,-2,-2,-3,-1,0,-2,-2
1509765209943652,-2,-1,2,1,0,-4,-3,-2
1509765209943652,0,4,-1,-2,-1,-3,-1,0
1509765209944657,0,2,8,2,-3,-1,-1,-1
1509765209944657,1,0,-1,-2,0,-7,-4,0
1509765209946667,-1,4,7,1,-2,-1,-1,-2
1509765209946667,1,-4,-10,-3,-2,2,-2,0
1509765209948660,-1,-1,13,1,-1,3,3,0
1509765209948660,-1,-1,-19,-4,-2,-2,-4,-2
1509765210010719,-1,-2,0,-2,-1,-2,-2,-1
1509765210010719,0,-2,-1,-1,-2,-1,-1,-2
1509765210069572,2,0,-5,-1,-3,1,-2,-1
1509765210069572,-1,-1,2,0,0,1,4,1
1509765210078602,1,-3,-9,-6,-3,-5,-3,-2
1509765210078602,-1,4,11,0,-1,2,-2,-2
1509765210080579,-1,3,10,6,5,11,7,1
1509765210080579,-1,-3,4,-4,-5,-18,-16,-5
1509765210081604,2,7,18,5,4,5,0,1
1509765210081604,-8,-8,0,-1,-4,1,2,-1
1509765210102594,1,3,0,-2,-1,1,0,0
1509765210102594,0,-1,2,0,-2,-5,-1,-1
1509765210102594,-1,-8,-6,2,2,1,0,-2
1509765210102594,-1,1,9,-4,-4,-3,-2,-2
1509765210106603,-1,-4,-7,-4,-4,-4,-5,-2
1509765210106603,-4,2,1,-3,-1,1,-1,-2
1509765210152186,-4,-11,-9,-1,2,3,1,0
1509765210152186,2,6,0,0,0,-3,-3,0
1509765210168173,1,1,0,-2,1,0,-1,-1
1509765210168173,-2,1,1,-3,-2,3,-2,0
1509765210176179,-3,-8,-1,0,0,-2,-1,-2
1509765210176179,0,-2,-7,-2,-1,-3,1,-1
1509765210178187,-1,-2,5,0,1,2,1,1
1509765210178187,0,2,2,5,2,2,0,-1
1509765210179182,1,0,-3,-1,-1,0,0,-1
1509765210179182,-3,-2,2,1,1,2,0,-2
1509765210222213,-1,-4,-2,-2,-3,-1,-3,-1
1509765210222213,-2,1,-7,-1,-1,2,-2,-2
1509765210241732,0,0,-2,-2,1,-1,-1,-2
1509765210241732,-1,-1,-1,1,-1,-3,0,-3
1509765210347900,3,-5,-1,-2,-1,1,-1,0
1509765210347900,-13,2,-5,-3,-4,-2,-1,-2
1509765210355889,0,6,8,5,4,5,2,0
1509765210355889,-1,-3,8,-1,0,1,-3,-2
1509765210357891,-3,-2,-4,-1,-3,-1,-2,-2
1509765210357891,-2,2,-1,0,0,1,1,0
1509765210358894,1,0,6,2,-1,1,1,-1
1509765210358894,4,-2,-7,0,1,-2,0,0
1509765210377906,1,-1,5,0,-1,-2,0,1
1509765210377906,0,2,3,3,1,-2,-1,-1
1509765210378906,-13,5,2,-1,-1,2,-1,-3
1509765210378906,-1,1,0,-1,1,2,0,-2
1509765210380906,1,-7,-5,2,-1,0,-1,0
1509765210380906,-1,-1,-1,-2,-2,0,-1,-1
1509765210392915,3,-5,-1,-1,-1,-7,-4,-2
1509765210392915,1,4,1,0,0,2,0,-1
1509765210393918,-2,2,2,-3,-2,-1,-2,0
1509765210393918,-1,-3,-11,-4,-2,3,-1,0
1509765210406926,0,-6,-2,-1,-3,-3,0,-1
1509765210406926,-1,-2,1,1,1,0,0,0
1509765210443966,2,0,2,0,-1,-1,-1,0
1509765210443966,-2,-3,-4,-1,0,-2,-1,-1
1509765210459010,1,-4,-8,0,0,-4,-1,-2
1509765210459010,-8,6,4,-3,-6,-6,-3,0
1509765210484045,1,2,2,1,-1,2,0,-2
1509765210484045,-1,-2,-1,-3,0,-2,-1,-1
1509765210497036,0,-2,-3,-2,-2,0,0,0
1509765210497036,2,-2,2,4,1,-2,-3,-2
1509765210634276,1,-2,-3,-3,-3,-3,-2,-1
1509765210634276,-4,0,0,-1,-1,1,-3,-2
1509765210635277,-1,-4,5,3,-1,0,2,-1
1509765210635277,-7,2,-8,-2,-3,1,1,-2
1509765210635777,1,-4,-7,0,1,-1,-2,-1
1509765210635777,-3,-6,-3,-2,-1,-2,-1,0
1509765210636281,4,-1,-4,-2,-1,0,0,0
1509765210636281,-1,-6,0,0,-3,1,1,-1
1509765210640781,0,2,1,-3,-2,-2,-2,-2
1509765210640781,0,-3,0,1,3,3,1,-1
1509765210655798,-1,-1,2,2,2,2,-1,-2
1509765210655798,-3,3,1,-2,0,-1,-1,0
1509765210656794,-1,-4,-6,-5,-2,-1,1,1
1509765210656794,-1,0,1,-3,-3,1,0,-1
1509765210661797,-4,-5,2,3,0,1,0,0
1509765210661797,2,2,2,-1,-1,0,0,-2
1509765210668803,1,-3,1,-3,-2,3,0,0
1509765210668803,1,1,-6,0,3,-3,-2,0
1509765210683813,1,1,4,5,1,3,0,-1
1509765210683813,0,3,5,-3,-5,-1,-1,-3
1509765210692820,-2,1,0,-1,-1,-1,-2,-2
1509765210692820,-2,-2,-5,-2,-4,-2,1,-1
1509765210713834,1,-1,3,0,0,-1,0,0
1509765210713834,-15,9,7,3,1,0,-1,-1
1509765210732349,-2,-11,-9,-7,-3,-1,-2,-2
1509765210732349,-2,-4,-9,2,2,-1,0,-3
1509765210733349,-4,-3,6,-2,0,-1,-1,0
1509765210733349,3,3,-1,-1,-4,-5,0,1
1509765210745382,6,-3,-3,0,2,-2,-2,-1
1509765210745382,-4,1,2,-1,-2,0,-2,-1
1509765210746383,0,-4,-4,-3,-2,-3,-1,-1
1509765210746383,4,3,-2,-1,-2,1,0,0
1509765210909540,-1,-2,0,-2,-2,-1,-1,-1
1509765210909540,3,-6,-3,-1,-2,-1,-1,-1
1509765210932559,-17,-10,-1,-1,0,0,-1,-2
1509765210932559,8,9,-1,1,-1,0,0,2
1509765210977671,-2,2,5,0,0,-3,-1,-2
1509765210977671,-1,-4,-4,-2,-3,-4,-2,-3
1509765210978642,-4,-3,3,-2,-1,0,-1,-3
1509765210978642,-2,-5,-9,-3,-1,-1,-2,-2
1509765210984643,-2,-2,-3,0,-1,0,1,1
1509765210984643,-2,-1,-7,-1,-1,-3,-3,-3
1509765210993661,-2,2,-1,-3,-2,1,-1,-2
1509765210993661,2,0,4,1,-2,-1,-2,-2
1509765210995652,-2,0,-1,-4,-1,0,0,-1
1509765210995652,-4,0,3,-1,-2,-2,-1,-3
1509765210998664,-2,-2,-3,-3,-4,-4,-2,-1
1509765210998664,1,3,4,0,-1,-3,-1,-2
1509765211007665,-1,-4,-6,-3,-1,3,1,1
1509765211007665,0,0,-3,2,-1,-1,1,1
1509765211032200,1,-3,-1,0,0,-2,-2,-2
1509765211032200,0,0,-1,0,-2,-1,0,0
1509765211033201,-1,3,3,0,-1,-2,-1,1
1509765211033201,0,5,-1,-1,0,-1,-1,0
1509765211051807,-1,-1,-3,0,0,0,0,-1
1509765211051807,4,-8,2,-4,-2,-4,-3,1
1509765211075824,1,-1,-7,-4,0,-2,-2,-1
1509765211075824,-4,0,-2,-3,-2,-1,-1,-3
1509765211077825,0,0,2,1,-1,-2,-2,0
1509765211077825,0,-2,1,1,0,0,-1,-2
1509765211164017,-1,-3,0,-2,-5,-6,-2,-2
1509765211164017,0,1,-4,1,0,-3,-3,-1
1509765211190026,8,-6,2,-3,-4,3,-1,-2
1509765211190026,-5,-1,3,3,2,1,0,-2
1509765211190026,-1,-2,-7,-5,-1,-1,1,-1
1509765211190026,-2,0,-1,-1,-1,1,-1,-1
1509765211196031,-2,-2,-2,1,0,0,-2,-1
1509765211196031,1,2,-1,-2,-1,-1,-1,-1
1509765211211052,-1,-4,4,-4,0,0,0,1
1509765211211052,2,-5,-5,-3,-4,-2,-2,-1
1509765211212043,-1,-3,3,1,-2,-2,-2,-1
1509765211212043,2,2,2,1,0,1,-2,-2
1509765211214043,0,-4,0,-3,-1,-1,-1,-2
1509765211214043,-1,-1,-1,-1,-2,3,0,1
1509765211240072,-4,-4,-11,-3,-4,-1,-3,-1
1509765211240072,-1,1,-1,-2,0,-4,0,-1
1509765211242074,-1,0,3,2,0,-1,-1,-2
1509765211242074,-3,-3,0,0,0,-4,-1,-3
1509765211261149,-1,-2,4,-3,-2,-2,0,-2
1509765211261149,-8,-3,-3,-4,-3,0,0,-1
1509765211286160,4,4,0,1,0,0,-1,-1
1509765211286160,-2,-2,-4,-8,-1,-3,-2,-2
1509765211354254,1,-4,1,-1,2,4,0,-1
1509765211354254,-15,0,-5,0,-1,-2,0,-4
1509765211355256,-1,-1,0,-1,-2,2,0,-1
1509765211355256,-1,-2,-4,-2,-2,-2,0,0
1509765211356256,0,-2,-1,0,-4,-2,-2,1
1509765211356256,8,-3,0,-1,0,0,-2,0
1509765211396302,-3,-3,2,2,-1,-2,0,-2
1509765211396302,-6,-6,-1,-6,-2,-3,-4,-1
1509765211465849,3,2,-2,-2,-2,-1,0,1
1509765211465849,1,-2,2,0,-2,-2,-1,-1
1509765211465849,-4,-3,-2,-3,-2,1,-2,-2
1509765211465849,0,10,1,0,1,0,2,0
1509765211479875,-3,-7,-5,-2,0,1,0,-1
1509765211479875,-5,-8,6,-1,-2,1,1,-2
1509765211480876,15,3,-6,0,-1,-2,-2,1
1509765211480876,-3,4,0,-4,-3,-2,-1,0
1509765211488883,-2,-2,-5,2,-1,-2,-2,-2
1509765211488883,-2,1,4,-5,-5,-1,-2,-2
1509765211489866,-2,-4,-5,-2,-2,-1,-1,-1
1509765211489866,3,-3,-1,-1,-1,-2,-1,0
1509765211490866,-12,5,2,0,-1,0,-1,-4
1509765211490866,-6,12,-3,-2,0,2,0,1
1509765211525895,3,-1,-3,-2,0,2,-2,-1
1509765211525895,1,-2,4,0,-2,-1,-1,0
1509765211526891,4,-2,-4,-1,-4,-7,-2,-2
1509765211526891,-1,-1,3,2,0,1,-1,0
1509765211528893,-4,1,-3,-6,-2,-2,-1,-1
1509765211528893,-1,2,7,7,4,1,2,1
1509765211540915,1,-7,-3,-5,-3,-1,1,-1
1509765211540915,-1,-2,-3,-6,-2,-2,-4,-2
1509765211547494,1,-5,-2,0,-1,-2,-1,-1
1509765211547494,-8,-3,-4,-3,-3,1,0,-1
1509765211548491,-2,0,-3,0,-2,-3,-1,0
1509765211548491,0,1,-1,8,2,-3,0,-2
1509765211572524,0,3,1,-4,-2,0,-1,-1
1509765211572524,-1,-7,-8,0,-2,-3,-2,-2
1509765211572524,-1,2,4,-3,-3,-2,-2,-2
1509765211572524,2,2,-3,-2,-2,0,-1,0
1509765211608542,0,-7,4,0,0,-1,-2,-1
1509765211608542,-2,-2,-8,-3,-1,0,-2,0
1509765211609536,-1,-3,-4,-3,0,-1,0,1
1509765211609536,-2,0,8,1,-5,-4,-3,-2
1509765211611546,-2,0,-3,1,-1,-4,-3,-2
1509765211611546,-1,0,3,-4,-1,2,2,0
1509765211744227,0,-4,-7,5,0,2,-1,0
1509765211744227,2,3,1,-2,3,3,0,0
1509765211745743,-1,0,-3,-4,-4,-3,-2,-1
1509765211745743,0,-2,-2,-2,0,-4,-1,0
1509765211745743,0,-1,-2,-1,-1,2,0,-3
1509765211745743,0,1,2,-6,-2,-3,-2,0
1509765211766823,1,-2,-4,10,4,1,-1,0
1509765211766823,2,-1,1,16,2,-2,-2,-1
1509765211767821,-7,-6,-11,-19,-5,-2,-1,-2
1509765211767821,0,0,2,-5,0,-1,-3,-2
1509765211768823,-2,0,-9,1,-3,-11,5,-3
1509765211768823,-3,0,5,-2,-4,-3,-4,-3
1509765211839883,1,-1,-4,0,0,2,3,-1
1509765211839883,0,-3,1,-3,-1,10,5,1
1509765211886422,-2,-2,-2,0,0,9,-4,-2
1509765211886422,-1,1,-5,0,-1,-32,-9,-4
1509765211888429,2,-3,0,-2,-2,-1,0,-2
1509765211888429,-1,-3,10,0,-2,-5,-3,1
1509765211888429,-2,-2,-25,-4,-3,1,-3,-1
1509765211888429,-2,5,37,1,-1,8,5,-1
1509765212020130,-1,-8,-1,-3,-1,-3,-5,-1
1509765212020130,-1,2,-7,4,6,13,4,1
1509765212044653,-3,-4,15,-2,-4,-3,-2,-1
1509765212044653,-1,-6,-1,-4,-2,7,2,-1
1509765212045665,2,-2,-7,3,0,-3,-1,0
1509765212045665,-3,0,-4,-4,-1,5,0,0
1509765212046155,0,3,9,-6,-4,-2,5,-4
1509765212046155,-6,-3,0,-4,-3,-5,-1,-3
1509765212066248,0,-2,-28,-3,-6,-32,-7,-4
1509765212066248,10,-2,5,-2,-3,-5,-7,-3
1509765212067255,-10,1,-4,-2,-3,-1,2,0
1509765212067255,-2,-2,2,1,0,2,0,0
1509765212069243,-2,-9,-1,-3,-3,0,-2,-1
1509765212069243,-6,0,7,1,-2,-1,-1,0
1509765212074254,4,14,3,1,0,-1,-2,0
1509765212074254,5,-11,1,-1,-3,-4,-1,-2
1509765212076244,-1,1,-1,0,-1,6,0,-1
1509765212076244,0,3,-1,-2,-1,-2,-5,1
1509765212096268,-1,-7,-1,-1,-1,-5,0,-2
1509765212096268,2,6,5,0,-2,-1,0,0
1509765212098270,1,2,1,-1,0,-1,-5,-2
1509765212098270,-4,-6,-6,-6,1,-3,-4,-4
1509765212099261,-2,-3,-4,7,1,1,-2,-1
1509765212099261,0,-5,-3,2,3,2,1,1
1509765212109277,-4,-2,-2,2,2,9,9,-1
1509765212109277,0,3,13,-1,-8,-14,-8,-2
1509765212117314,-2,-4,-9,-12,4,-3,-6,0
1509765212117314,1,0,4,-1,-2,-1,-1,-2
1509765212141853,0,-4,-1,-4,-2,-10,-4,-3
1509765212141853,1,1,-4,-2,-1,9,1,1
1509765212142354,-14,-17,-7,-1,-3,-2,5,-4
1509765212142354,7,-8,4,3,-1,-2,0,-1
1509765212162383,-3,4,-3,-4,-1,4,1,0
1509765212162383,-2,-1,-6,-2,-1,8,1,-1
1509765212163383,-1,-3,2,3,0,-11,-6,-3
1509765212163383,0,2,9,-2,0,3,0,-2
1509765212276545,-3,1,-17,-3,-2,-3,-1,-2
1509765212276545,-7,-11,7,1,0,-5,-2,-2
1509765212277545,6,3,0,0,2,4,-1,3
1509765212277545,-7,-4,21,-5,-5,-3,-2,-2
1509765212321593,2,5,-14,-5,-1,-1,-5,-1
1509765212321593,-3,-1,-5,2,-1,-6,0,-1
1509765212321593,1,-1,-9,-4,-4,2,0,-2
1509765212321593,-6,-1,6,4,1,-1,0,0
1509765212323598,3,-1,5,-6,-5,-3,-4,-4
1509765212323598,-8,7,7,1,-1,0,0,-2
1509765212334091,0,3,1,0,-4,2,1,-1
1509765212334091,5,-3,5,-1,-1,-6,-4,-1
1509765212359653,-3,3,0,3,2,-2,0,2
1509765212359653,1,-3,-1,-6,-4,1,0,-1
1509765212360665,-2,1,11,27,-2,-1,-3,-2
1509765212360665,0,-7,-2,-21,4,2,-1,-1
1509765212371660,-2,-1,-6,2,-1,1,-1,-2
1509765212371660,2,3,4,-3,-1,-2,-2,-2
1509765212418705,2,2,1,-4,0,-1,0,-1
1509765212418705,0,0,0,9,-2,0,1,1
1509765212419694,-3,-3,-1,1,-3,1,-1,-1
1509765212419694,3,0,-5,-15,-4,-2,-4,0
1509765212420706,-5,-5,5,13,3,2,0,-3
1509765212420706,0,-5,-5,-2,-2,1,0,-1
1509765212431713,0,1,-12,-4,0,-6,0,-3
1509765212431713,1,2,19,2,-2,-5,0,0
1509765212440734,-1,-5,-18,-15,-5,-5,1,-2
1509765212440734,-2,-2,-9,-2,-5,-5,-3,0
1509765212441729,-2,-3,6,0,-7,-6,-10,-3
1509765212441729,0,0,5,5,1,3,1,-1
1509765212442224,0,0,-1,-7,2,2,0,-1
1509765212442224,0,-4,4,2,-2,-2,-1,0
1509765212536871,0,7,-6,-1,-3,0,1,-1
1509765212536871,-8,8,6,1,3,1,1,1
1509765212567002,1,-4,-9,-4,-2,-1,-1,0
1509765212567002,4,-13,-14,-2,-2,-1,1,-1
1509765212577010,9,8,6,0,-2,-2,-1,1
1509765212577010,0,-10,-37,-7,-3,-2,-5,-2
1509765212578009,-2,2,11,-1,0,10,5,1
1509765212578009,-3,6,12,0,-2,-3,7,0
1509765212608033,-2,1,-2,-3,-4,-3,-1,-1
1509765212608033,4,-7,-13,-1,0,2,0,0
1509765212627044,-10,1,12,1,1,-2,-1,0
1509765212627044,1,9,1,7,1,3,0,2
1509765212637575,-6,-12,10,-9,-3,-3,0,-2
1509765212637575,-2,-1,-25,-13,-1,-3,-4,-3
1509765212638084,1,-4,-11,-2,-5,-3,-4,-2
1509765212638084,-1,-2,6,10,4,3,2,0
1509765212658587,0,7,0,-1,-2,-3,0,0
1509765212658587,3,3,7,4,1,-1,1,-1
1509765212660602,1,2,-10,-2,-4,0,-1,-1
1509765212660602,7,-5,21,0,0,-3,-1,0
1509765212660602,-1,1,-13,-2,1,2,0,-1
1509765212660602,-2,-3,5,-2,-1,2,0,0
1509765212876620,-2,0,-9,0,-1,-4,-2,0
1509765212876620,-3,-2,-3,-5,-2,1,-1,0
1509765212876620,1,-2,9,5,-1,-3,-1,-1
1509765212876620,-1,-4,-2,-5,-2,-4,-1,-1
1509765212878622,-2,1,-5,-3,-2,2,0,-3
1509765212878622,-3,-1,-2,0,-2,-1,1,-1
1509765212920661,3,-1,2,4,3,-3,-1,0
1509765212920661,-5,-7,-7,3,-1,-1,-1,-3
1509765212922653,1,5,9,20,-3,1,-2,1
1509765212922653,-1,1,-10,-22,1,-3,-3,-1
1509765212923667,-2,2,-5,-7,2,3,2,1
1509765212923667,-2,-2,4,10,4,2,0,0
1509765212951228,-1,0,1,-4,-3,-1,-3,-1
1509765212951228,-2,-1,-6,-8,-1,-1,-1,-1
1509765212953243,1,2,-4,-3,0,-2,-1,-1
1509765212953243,-2,-1,-1,0,-2,-2,-2,-3
1509765212954228,-1,-1,-2,-6,-2,-4,-1,-3
1509765212954228,2,-1,12,5,-1,2,-1,1
1509765212973243,-14,3,-24,-11,-4,-3,-2,-2
1509765212973243,-1,-4,-1,-1,0,0,0,-1
1509765212973243,-2,-6,-7,-3,-1,-1,0,-1
1509765212973243,-13,6,6,2,-1,-1,-1,-3
1509765213002277,1,0,9,-2,1,-3,-1,-2
1509765213002277,1,0,-2,6,4,3,0,-1
1509765213003274,-2,4,2,3,2,1,0,-1
1509765213003274,3,-3,7,-5,-4,-1,0,-1
1509765213146324,1,-3,-7,2,-3,-5,-2,-2
1509765213146324,-1,2,0,-3,-4,-1,-2,-3
1509765213147317,2,-3,7,4,-1,-4,-2,-1
1509765213147317,1,-3,-23,-14,2,0,0,-1
1509765213148391,2,2,3,3,-1,0,1,-2
1509765213148391,0,-2,-1,-10,-1,-5,-2,1
1509765213153413,0,-2,4,7,-1,3,-1,-1
1509765213153413,1,0,-5,-5,-1,-2,-1,0
1509765213155397,-2,-1,1,-2,-2,-2,0,-1
1509765213155397,0,-1,-5,-3,-1,-1,-2,-1
1509765213156398,-3,-3,-5,-4,-2,-2,-2,-1
1509765213156398,-1,1,0,3,-3,-4,-1,-2
1509765213175408,-3,3,6,-1,1,2,-2,-2
1509765213175408,-3,-1,-6,-1,-3,1,-1,0
1509765213175408,2,-2,8,-2,2,5,1,-1
1509765213175408,0,-3,3,-1,-2,0,-2,-2
1509765213196444,-2,-1,-7,-1,-1,-2,-2,0
1509765213196444,0,-3,1,2,1,1,0,-1
1509765213204430,-3,-6,-9,-3,-1,-1,-1,0
1509765213204430,-1,-3,2,-3,-3,-6,-3,-1
1509765213212455,-11,7,-2,1,0,3,3,1
1509765213212455,1,-1,2,-1,1,-4,-3,-1
1509765213213434,2,-1,-2,-4,-1,0,2,-1
1509765213213434,-1,1,0,-2,-1,-1,2,0
1509765213250548,3,-3,-2,-1,-2,-4,-5,-1
1509765213250548,6,-7,-2,0,0,0,0,2
1509765213251546,-7,2,-1,-4,-4,-2,0,-1
1509765213251546,-1,-2,2,5,0,0,-1,-1
1509765213257549,-1,1,-9,-1,-1,-2,-2,-1
1509765213257549,-3,-2,13,-2,4,1,1,1
1509765213258552,2,-5,-4,0,1,-3,-2,1
1509765213258552,0,4,1,-2,-2,-1,0,1
1509765213272560,-2,-2,-2,5,1,-1,-2,-4
1509765213272560,-2,0,-6,-8,-2,-1,-1,-1
1509765213273562,0,-5,-7,-1,0,0,-1,-1
1509765213273562,-1,1,3,-6,-1,-1,-1,-2
1509765213294577,0,0,-3,-1,-2,0,-1,0
1509765213294577,-3,-4,-5,1,-2,-1,-2,-1
1509765213310597,-1,-2,-3,1,-1,0,0,-1
1509765213310597,0,-2,-4,-4,1,2,1,-1
1509765213317593,1,2,2,-2,-3,-6,-2,-2
1509765213317593,-4,-1,-2,3,0,0,-1,0
1509765213318607,0,-2,1,3,1,2,1,1
1509765213318607,-2,-2,-3,2,0,1,-1,-2
1509765213340133,1,3,5,-1,-1,1,-1,-3
1509765213340133,-3,-3,-4,-2,-2,-3,0,-1
1509765213341134,0,-3,-1,-1,-3,0,-1,-3
1509765213341134,-1,0,-2,2,-4,-9,-4,-1
1509765213362703,-1,-1,2,-5,3,2,-1,-1
1509765213362703,1,3,3,-1,0,-2,-2,-1
1509765213363695,0,-3,-9,-4,-1,0,-1,-1
1509765213363695,-4,-3,-3,-1,-2,-1,0,-1
1509765213368693,1,1,7,1,-1,-5,-2,1
1509765213368693,0,-3,2,3,-1,0,1,0
1509765213376713,-1,-2,3,0,0,-1,0,0
1509765213376713,-1,5,-1,-4,3,2,2,-1
1509765213400718,0,-11,-7,9,0,-2,-2,-2
1509765213400718,-1,0,0,-4,2,0,-1,-1
1509765213401716,-12,0,-1,-7,-6,-1,-1,-1
1509765213401716,-4,1,-2,2,0,-1,-3,-1
1509765213413739,0,2,4,5,-2,-2,0,-1
1509765213413739,-3,-2,-5,-1,-2,-2,-1,-1
1509765213421745,2,-3,-1,-1,0,-2,-3,-1
1509765213421745,1,-3,-3,-6,-2,0,1,0
1509765213429741,-2,4,2,-2,-2,-2,-1,-1
1509765213429741,-1,-4,-8,-2,-2,2,-1,0
1509765213429741,0,1,10,4,0,-1,2,-1
1509765213429741,-2,0,-1,1,-3,-3,-1,-1
1509765213467293,0,3,5,2,0,-2,-3,-3
1509765213467293,-3,-4,-9,-7,4,-3,-3,-1
1509765213468291,1,-4,8,11,1,-2,0,1
1509765213468291,-2,-3,-16,-17,-4,1,-1,-2
1509765213482316,1,6,3,-4,-2,-3,0,1
1509765213482316,0,0,1,2,-2,2,1,-1
1509765213483301,0,-4,-2,2,0,0,-2,-1
1509765213483301,1,0,4,5,-1,-2,-1,-1
1509765213488308,-2,0,-3,-5,-2,-2,-2,-2
1509765213488308,-3,-2,2,4,-2,0,0,-1
1509765213504315,2,-5,-7,-5,-3,1,0,1
1509765213504315,-6,2,1,-2,-2,0,-1,-1
1509765213527348,-2,-1,-1,-3,-1,-2,-3,-2
1509765213527348,0,-3,1,3,-1,-3,-2,-2
1509765213529349,-10,3,-3,-3,0,0,1,1
1509765213529349,2,-3,-7,0,-2,-3,-2,-1
1509765213535377,-1,3,7,-1,-2,2,1,-1
1509765213535377,-1,1,0,-1,-2,1,1,-2
1509765213536855,2,-6,-4,-6,-2,0,-2,-2
1509765213536855,-2,-2,-1,1,-4,-3,-2,-2
1509765213548990,-4,-1,-3,-3,0,-5,-2,0
1509765213548990,-1,0,0,1,1,-1,0,0
1509765213558005,1,-3,-4,-1,2,2,2,0
1509765213558005,2,3,6,5,0,-2,-3,-1
1509765213572031,-1,1,-4,-7,-1,-1,-2,-1
1509765213572031,1,-3,-2,0,0,0,-2,0
1509765213574009,-5,-7,0,-2,-1,-3,-1,-2
1509765213574009,-2,0,-9,-4,-3,-3,0,-1
1509765213595035,1,-1,2,3,-1,3,0,0
1509765213595035,0,1,2,-8,-2,-2,-1,1
1509765213618036,7,-3,-2,2,0,0,-4,-2
1509765213618036,-7,-1,4,2,1,5,0,-5
1509765213619037,-1,6,-6,-3,-7,0,-1,0
1509765213619037,-2,-4,-3,-2,-1,-3,-2,0
1509765213621043,0,-3,2,4,1,-2,-2,0
1509765213621043,2,-4,-9,-15,-3,-2,-1,-2
1509765213646564,0,-2,1,-1,0,-1,-1,-3
1509765213646564,-4,-5,1,2,-2,0,-1,-3
1509765213664201,2,-1,-2,-1,0,-1,1,0
1509765213664201,1,2,3,3,-2,-6,-3,0
1509765213665203,-2,-1,-10,-1,1,0,-1,-2
1509765213665203,-1,-1,-2,1,-1,-1,0,-1
1509765213678226,-5,-6,-2,-6,0,-5,-3,-2
1509765213678226,-3,0,-2,1,0,-3,-1,-1
1509765213678226,-1,-2,-2,-5,-4,1,-2,0
1509765213678226,1,-1,1,5,0,-1,0,-1
1509765213683231,0,-3,-2,-2,-3,0,1,-2
1509765213683231,-4,1,5,1,-2,-2,-1,-1
1509765213692237,1,-2,-7,-12,-3,-2,-1,0
1509765213692237,-3,-2,1,10,2,1,-1,-3
1509765213694222,-1,0,-6,-1,2,0,1,0
1509765213694222,0,0,5,3,1,2,0,-1
1509765213715252,-2,-1,-1,0,-1,-1,-2,-1
1509765213715252,5,-7,-4,-6,-3,-1,-3,0
1509765213716237,8,-1,-3,-4,-2,1,-1,1
1509765213716237,-3,4,-2,-2,0,2,0,-1
1509765213738273,-1,0,-2,1,-2,1,1,-1
1509765213738273,0,0,3,-1,-2,-2,-1,-1
1509765213739770,0,-5,-4,-5,-2,-1,-1,1
1509765213739770,0,3,-5,-8,-6,-3,0,-1
1509765213759517,-1,-3,0,7,0,-4,-2,-1
1509765213759517,-4,-4,-6,-7,1,0,1,-1
1509765213761502,-5,-3,2,-4,-1,-1,-1,-3
1509765213761502,1,-1,-2,-1,-1,4,0,1
1509765213782532,-2,3,-2,1,0,-3,-3,0
1509765213782532,-1,0,1,0,-1,0,-2,0
1509765213784521,-3,-2,-4,-2,-1,-3,0,-1
1509765213784521,-1,-2,0,2,3,-5,-2,-1
1509765213805550,1,-1,0,0,-2,1,1,-1
1509765213805550,-4,-3,1,2,0,-1,-2,0
1509765213813539,-2,-1,-8,-4,-1,-1,0,-2
1509765213813539,2,0,3,3,-4,-3,-1,-2
1509765213813539,-3,1,-1,-2,2,3,0,-1
1509765213813539,-2,0,-2,-6,-1,-3,-1,0
1509765213815544,-2,-6,0,0,1,1,-1,-2
1509765213815544,1,-1,-2,0,2,-1,0,2
1509765213835060,-1,2,-1,-9,-3,-1,-2,-2
1509765213835060,0,-5,-3,8,4,0,2,0
1509765213837061,-2,-3,0,-1,-2,-2,-2,-1
1509765213837061,-11,2,-2,1,0,1,-1,-3
1509765213857647,-11,6,2,-2,0,1,1,1
1509765213857647,0,1,-1,-7,-3,-2,-2,-2
1509765213858658,-3,-3,2,5,0,-4,-1,-1
1509765213858658,3,-1,-2,-2,-1,-1,-1,0
1509765213941711,2,-5,-5,-3,2,2,-2,-2
1509765213941711,-3,0,1,-2,-3,-2,-3,-1
1509765213943265,1,-2,1,-2,0,3,0,-1
1509765213943265,2,-2,-3,-7,-7,-2,-2,0
1509765213944222,1,-2,-2,2,-1,-2,-2,-1
1509765213944222,-2,-5,-4,-3,-2,0,0,-1
1509765213963830,2,-1,0,1,1,0,0,0
1509765213963830,0,0,-2,-1,-1,-2,-1,0
1509765213964831,2,0,-2,-1,-1,-3,-1,-1
1509765213964831,0,-4,-3,-3,-1,0,-1,0
1509765213965815,0,-4,1,1,-2,-2,-4,-2
1509765213965815,-1,-1,-2,-3,-2,1,0,-2
1509765213976852,-2,-1,5,-2,-4,-4,-3,0
1509765213976852,-3,-2,-2,3,-1,2,0,-2
1509765213984831,-2,-5,-4,1,-2,-2,0,-1
1509765213984831,0,-2,-4,-4,-3,-5,-4,-2
1509765213986830,-3,-1,2,3,0,2,1,1
1509765213986830,6,-2,-3,-9,-6,-2,-2,1
1509765213992866,-9,3,1,1,1,-4,-2,-3
1509765213992866,0,0,-1,2,-2,1,-1,-2
1509765213993837,-3,-4,-1,-8,0,-4,-1,-2
1509765213993837,0,0,-4,-3,-3,-2,-2,-1
1509765214014867,2,0,-2,0,1,4,2,1
1509765214014867,-1,-2,0,-3,-1,-6,2,0
1509765214016853,-2,2,6,3,-3,0,-2,-2
1509765214016853,-1,1,-5,2,1,-1,-1,-1
1509765214037880,-8,4,-2,0,5,5,-1,-1
1509765214037880,-3,-4,-4,-4,-3,-3,-1,-1
1509765214039380,1,-3,7,4,-2,0,0,0
1509765214039380,-3,2,-1,-3,-2,-3,-2,-1
1509765214060032,5,2,4,-5,-6,-2,-2,-2
1509765214060032,0,-3,-5,-3,-4,-3,-1,0
1509765214062019,-3,-3,-5,0,3,1,0,0
1509765214062019,-2,2,3,3,0,-6,-3,-2
1509765214074040,0,-2,0,-2,-2,-1,-1,0
1509765214074040,-2,-1,-2,-5,-2,2,0,-1
1509765214083036,1,-2,0,6,-2,-2,0,-2
1509765214083036,-1,3,-5,-4,0,0,-2,-1
1509765214129083,2,-5,-3,0,0,-2,0,1
1509765214129083,0,-1,-3,-4,-3,0,-2,-2
1509765214130072,-2,-3,-3,-2,-3,-3,-2,-1
1509765214130072,0,3,-1,-2,0,0,-1,-1
1509765214131068,0,0,0,-1,-1,3,1,0
1509765214131068,-1,0,6,6,1,4,-1,-1
1509765214137084,-3,-4,7,-2,0,-3,-1,-2
1509765214137084,-3,1,-13,-6,-5,-2,-2,-3
1509765214138087,0,-4,1,-2,-1,-3,-1,-1
1509765214138087,7,-6,-4,1,-1,-3,-2,1
1509765214148591,-4,-2,0,3,-4,0,-1,-2
1509765214148591,-2,-1,1,-1,5,1,-1,0
1509765214173628,-1,-1,-8,-12,-1,-1,-2,-2
1509765214173628,0,0,2,3,1,-1,1,-2
1509765214175629,1,-4,-6,-6,-3,-5,-3,0
1509765214175629,-1,2,1,3,-3,1,0,-3
1509765214176626,-1,-4,-1,-7,-4,-5,-1,-1
1509765214176626,-3,-2,3,2,0,0,0,-1
1509765214187624,-4,-4,-2,-1,0,0,0,0
1509765214187624,0,2,-3,-2,-3,-1,-2,-1
1509765214194639,0,-1,0,4,0,3,-1,-1
1509765214194639,-5,-3,-6,-5,-2,-1,-1,-1
1509765214196631,-1,-3,-10,-3,0,-1,-1,-3
1509765214196631,1,-1,8,0,1,-1,0,-2
1509765214217658,-1,-2,1,3,-1,-1,-1,-1
1509765214217658,-1,-2,1,-3,-3,-3,-1,0
1509765214223651,2,-2,-2,-5,0,2,1,0
1509765214223651,-5,2,1,2,-1,-1,0,-3
1509765214231669,-1,0,-1,0,3,-3,-2,-1
1509765214231669,-5,1,-10,-7,-5,-3,-1,-3
1509765214238666,-2,-12,-4,4,5,0,0,1
1509765214238666,-2,1,-3,-2,-1,-3,-3,0
1509765214255348,-1,-2,3,2,-3,2,-1,-2
1509765214255348,-1,-3,2,3,1,2,-1,0
1509765214256350,-2,0,-5,-2,-2,1,0,-1
1509765214256350,1,2,1,-5,-4,-3,-1,-2
1509765214277408,-3,-1,1,3,-2,1,-1,-2
1509765214277408,-1,-2,-5,0,0,-4,-2,-1
1509765214279381,2,1,8,4,-2,1,1,0
1509765214279381,-1,1,-7,-11,-4,-3,-2,-1
1509765214291404,1,-2,-8,-2,-2,0,-1,-1
1509765214291404,-1,-3,10,8,-1,-4,-2,-2
1509765214298390,1,-3,-2,-6,-1,-2,-2,0
1509765214298390,2,-1,1,6,0,1,-1,-1
1509765214315399,-13,4,-3,-3,-3,-2,-1,-2
1509765214315399,-2,-4,-2,-7,-2,-1,2,1
1509765214316394,-1,-1,1,9,2,-2,-1,-2
1509765214316394,1,1,-1,-2,-7,0,-2,-1
1509765214338413,2,-5,-3,-6,-1,0,-1,-1
1509765214338413,-2,1,2,3,-2,1,0,-1
1509765214339914,-3,-3,-6,-8,-4,-3,-1,-3
1509765214339914,1,-1,-4,-7,-3,-1,-2,-1
1509765214359587,1,-1,-1,6,3,-3,-3,-2
1509765214359587,-1,1,2,-2,-1,-1,-2,-1
1509765214361588,-1,0,1,-4,-2,0,-1,-2
1509765214361588,0,3,1,8,-3,-1,-1,0
1509765214382605,1,-4,-9,-3,0,0,-1,1
1509765214382605,-3,-3,-5,-1,3,1,0,-1
1509765214383604,-1,-1,0,-1,-2,-1,-1,-1
1509765214383604,-1,2,-1,1,-3,-1,-2,-1
1509765214397629,6,-3,-1,-6,-1,0,0,-2
1509765214397629,-2,-5,-12,-1,-1,1,-1,-1
1509765214399616,0,-1,5,4,-5,1,0,-2
1509765214399616,-4,-1,-6,-12,0,-3,-2,-1
1509765214411641,3,-1,4,4,-4,-2,-2,1
1509765214411641,-1,-5,-3,-5,1,0,-1,1
1509765214418647,-1,0,-3,-2,-3,-2,-2,-1
1509765214418647,4,-3,-4,1,-2,-1,-2,0
1509765214435679,-16,4,1,-3,-1,0,-1,-4
1509765214435679,1,0,0,-3,1,3,0,0
1509765214437671,-3,-1,-1,6,1,-1,-1,-2
1509765214437671,0,2,-3,4,2,0,-1,-1
1509765214473741,3,-1,5,-3,-1,1,0,1
1509765214473741,-1,-2,-3,4,-1,-5,-3,-2
1509765214475753,-2,-6,-5,-6,0,0,0,0
1509765214475753,-1,1,-3,-2,-3,-2,-1,-2
1509765214475753,2,-3,0,2,0,-3,-2,0
1509765214475753,-4,-2,4,-3,-1,0,-1,-2
1509765214496757,1,-1,-2,0,0,2,2,1
1509765214496757,-2,1,3,-3,-2,-3,-2,-2
1509765214497758,1,-2,-2,-3,-2,-3,0,1
1509765214497758,0,1,2,-5,-2,-1,-2,-1
1509765214500777,-2,-1,-4,2,4,1,0,0
1509765214500777,1,1,11,28,-2,0,0,-2
1509765214516773,-10,2,-7,-23,0,1,-1,0
1509765214516773,-1,-10,-4,2,-1,-4,-3,-1
1509765214524779,-1,-7,-5,-12,0,-2,-2,-1
1509765214524779,0,9,0,-2,2,1,-1,-2
1509765214530795,3,-15,2,9,-2,-3,-2,-2
1509765214530795,2,10,0,5,0,-3,0,-1
1509765214540303,-6,5,8,11,-7,-4,-2,-2
1509765214540303,-1,-1,-10,-17,2,-1,0,1
1509765214555852,4,-1,-6,-2,0,-1,1,2
1509765214555852,0,0,1,-7,-3,2,2,2
1509765214556853,3,-13,-1,-10,-5,-2,-3,-2
1509765214556853,-4,-1,-1,4,-3,-4,-4,-4
1509765214576880,1,5,5,6,-2,1,-1,-2
1509765214576880,-1,-15,0,-13,-5,0,1,-2
1509765214591907,2,10,-8,3,5,-1,0,0
1509765214591907,-2,-27,1,-9,-6,-1,0,0
1509765214592889,1,24,-1,2,3,-2,-1,-1
1509765214592889,-3,-5,2,20,2,-1,1,1
1509765214599886,8,-18,-5,-17,-6,2,0,0
1509765214599886,-12,80,9,-15,-2,1,0,1
1509765214614899,-10,-103,-20,-5,-3,-1,-3,-6
1509765214614899,-2,-12,0,-5,-4,-4,-5,-2
1509765214616900,-5,29,11,0,-5,-2,1,0
1509765214616900,1,-6,-5,12,1,-2,-4,-4
1509765214637922,4,11,-3,-2,-4,1,0,1
1509765214637922,-4,2,-1,-2,1,0,1,-2
1509765214639435,6,-28,-4,-3,2,1,0,0
1509765214639435,-8,4,2,1,-1,0,1,1
1509765214659463,0,37,4,5,-1,0,-1,-1
1509765214659463,4,-42,-4,-2,-1,-3,-1,-1
1509765214661452,-5,13,6,9,0,-2,0,-1
1509765214661452,13,-8,-11,-16,-5,3,1,0
1509765214674471,-1,-47,7,10,2,-5,-3,2
1509765214674471,-15,77,-2,-6,-2,1,-4,-8
1509765214676461,-2,7,-10,13,-3,-8,-4,-3
1509765214676461,2,-35,-19,-24,-6,-3,-2,-1
1509765214704482,4,41,3,1,3,3,1,1
1509765214704482,8,-43,3,10,-2,-1,-1,-1
1509765214751086,-3,3,-8,-16,-2,-4,-3,-3
1509765214751086,4,17,13,8,-2,-4,-5,-4
1509765214752078,0,-25,-15,-3,12,3,1,1
1509765214752078,-4,10,10,2,-1,3,2,0
1509765214754078,-3,-3,-4,3,-1,0,-1,-3
1509765214754078,1,-17,5,-1,-1,-2,-1,3
1509765214756081,-11,12,1,-1,-6,1,0,-3
1509765214756081,-1,1,-4,-3,1,-4,-2,0
1509765214767089,4,16,2,1,-2,1,-2,0
1509765214767089,0,-2,-6,18,2,3,1,-1
1509765214772091,-10,-2,29,-29,-9,-6,-4,-5
1509765214772091,-1,-5,16,31,5,1,0,1
1509765214773093,11,7,-36,-18,5,1,0,0
1509765214773093,-2,-5,29,-4,-5,-5,-1,0
1509765214780099,-2,-10,20,2,1,-1,-1,-1
1509765214780099,-2,4,-5,-1,-4,-3,-2,-3
1509765214796122,3,4,19,5,-5,-3,-1,-1
1509765214796122,7,6,-17,-7,2,2,1,2
1509765214809118,5,8,-5,8,1,2,2,1
1509765214809118,-8,-42,-26,-7,-1,-3,-3,-3
1509765214817124,-6,2,-9,1,-5,-1,-3,-3
1509765214817124,5,1,1,-4,1,1,-1,0
1509765214819125,1,-15,-3,4,-2,-4,-3,1
1509765214819125,-4,8,-12,0,0,0,-1,-1
1509765214831147,-11,4,11,-2,-3,-1,-2,-1
1509765214831147,-6,6,3,-5,-1,-2,-2,-3
1509765214870211,3,-17,-8,1,2,1,0,-1
1509765214870211,1,11,-6,-2,1,2,0,0
1509765214871210,14,16,24,7,-4,-5,-2,0
1509765214871210,-1,0,2,-3,-1,-1,0,-1
1509765214873212,4,-14,-39,-12,-6,-8,-3,0
1509765214873212,-4,10,17,-2,1,5,0,-2
1509765214876213,2,3,2,3,-3,-3,-2,-3
1509765214876213,-2,-19,-16,-3,0,0,0,1
1509765214893229,0,11,-16,7,0,0,1,0
1509765214893229,4,10,46,-5,-5,-1,-2,0
1509765214894245,4,-6,-3,2,1,0,1,0
1509765214894245,-14,-8,41,-3,0,1,0,-3
1509765214900231,-5,1,-17,2,1,2,1,-2
1509765214900231,-1,-4,-48,-6,-1,-5,-6,-2
1509765214915243,-1,-4,-3,3,1,-1,0,1
1509765214915243,3,2,10,18,-3,-7,-2,1
1509765214916243,-6,6,-6,-18,0,-2,1,-1
1509765214916243,2,1,-4,-2,3,-2,1,-1
1509765214937791,0,0,8,-2,-4,-2,-3,0
1509765214937791,-2,-7,-28,-11,-1,-2,-2,-1
1509765214939299,-3,-1,13,7,-2,1,-1,0
1509765214939299,3,8,-7,5,-5,-1,-1,-2
1509765214958825,-5,-6,-10,-18,0,-3,-2,-2
1509765214958825,-1,-3,-6,0,-1,1,-2,0
1509765214984846,2,2,2,4,0,0,-2,-1
1509765214984846,-2,2,3,0,-1,-3,-1,-1
1509765214985837,-6,2,3,10,-3,-1,-3,-2
1509765214985837,0,-3,-17,-8,3,-1,-1,-3
1509765215003865,2,5,7,-3,2,-1,-1,0
1509765215003865,-5,3,-2,-3,-5,-3,-2,0
1509765215028865,-5,-1,0,0,-1,0,0,-3
1509765215028865,0,-4,10,1,1,1,1,-1
1509765215029884,0,-10,-27,-1,-2,1,-1,0
1509765215029884,-1,11,28,-1,1,0,0,1
1509765215030867,-2,-26,-26,-17,-4,-2,-3,-3
1509765215030867,-1,-2,-30,-2,0,-3,-1,-2
1509765215036383,-4,-4,33,2,-5,0,-1,-2
1509765215036383,2,-1,-3,5,0,-1,-2,-2
1509765215050393,1,-2,7,2,0,-1,-1,0
1509765215050393,-2,2,-3,0,0,-1,0,0
1509765215051899,-5,-19,-5,-2,-3,-3,-1,-2
1509765215051899,2,16,-5,-4,-4,-3,-3,-1
1509765215057916,-3,-7,12,6,9,6,3,-2
1509765215057916,-2,-6,-8,-2,-3,0,-1,-2
1509765215070926,1,8,2,-1,2,-3,0,1
1509765215070926,-2,-8,-3,-1,-1,-2,-1,-2
1509765215079937,-1,-4,2,23,-1,-4,-2,-2
1509765215079937,0,-2,-5,-21,-4,-2,-1,0
1509765215081920,0,7,-2,-11,0,0,-1,0
1509765215081920,-1,-3,-5,-1,2,0,-2,-1
1509765215093947,1,-5,-13,-8,-4,-2,-1,-1
1509765215093947,-4,7,5,8,-2,-3,0,-2
1509765215100952,-4,5,16,9,-2,-1,0,-4
1509765215100952,-2,-2,-23,-6,-1,1,-1,-2
1509765215124960,-2,-7,-3,4,-1,-3,-1,-1
1509765215124960,0,-7,-10,-6,-5,-4,-3,-1
1509765215126963,3,3,-12,-3,-2,-1,-1,0
1509765215126963,-6,4,3,4,-1,0,-2,0
1509765215147481,5,7,23,-8,1,2,0,1
1509765215147481,3,-6,-9,1,-4,-2,-1,1
1509765215149471,-3,7,-3,7,-1,0,-1,-2
1509765215149471,5,-8,-20,-5,5,-1,-1,-1
1509765215154622,-9,2,1,-5,-4,-2,-2,-2
1509765215154622,0,-7,1,-4,-1,1,-1,-2
1509765215160615,0,6,12,8,-1,-1,0,-1
1509765215160615,-1,-4,0,0,-3,0,0,0
1509765215177645,4,-2,-6,0,2,-2,0,-1
1509765215177645,-2,0,9,0,-2,0,-1,-2
1509765215178629,-3,-4,-6,-1,1,1,0,-1
1509765215178629,4,-4,1,0,-2,0,-1,0
1509765215199644,-3,-3,-4,-5,-1,-3,-3,-1
1509765215199644,-6,-1,-2,-3,2,-1,0,0
1509765215201645,-4,-6,0,-5,-5,0,-1,-1
1509765215201645,-1,1,0,2,-2,-2,-2,-1
1509765215214655,1,3,1,-1,-2,-2,0,-1
1509765215214655,3,-6,4,0,0,0,-1,-1
1509765215220660,1,1,-6,1,-1,-1,-4,-1
1509765215220660,-3,-4,6,6,0,1,-1,-2
1509765215237700,-2,-4,-7,-14,-3,0,-1,0
1509765215237700,-6,-7,6,4,2,-2,-1,-3
1509765215239201,6,0,-5,-10,-5,-1,-1,-1
1509765215239201,-6,-6,-3,-2,-4,-2,0,-1
1509765215260140,-3,16,6,2,0,0,0,-1
1509765215260140,4,2,-1,4,0,0,-1,0
1509765215261140,-2,-13,2,-1,-2,-2,1,-1
1509765215261140,-4,13,-1,0,1,4,0,0
1509765215274148,-2,-9,-8,1,0,0,-1,-2
1509765215274148,2,1,-1,-4,-3,-1,0,0
1509765215281154,1,3,1,0,-1,-2,0,-2
1509765215281154,4,3,-1,-4,-3,0,-1,-3
1509765215305171,-5,-5,1,0,-2,-1,-2,-3
1509765215305171,-1,-8,-5,-1,-1,1,-1,0
1509765215306172,-3,5,0,-4,-1,-1,-1,1
1509765215306172,0,-4,-3,0,-2,-2,-3,-1
1509765215327196,0,-1,-1,-4,-3,-2,-2,-1
1509765215327196,-6,-6,1,5,1,-1,1,-1
1509765215336712,0,9,1,0,-2,-3,-2,-1
1509765215336712,1,0,-2,-3,0,4,1,-1
1509765215337712,-4,-4,2,3,0,-2,-1,0
1509765215337712,1,-6,-11,-3,-1,-1,0,-2
1509765215348706,-3,6,2,-3,-4,-2,-2,-2
1509765215348706,-1,0,3,0,1,-1,0,-1
1509765215357880,-5,-3,-1,-1,0,1,1,-2
1509765215357880,1,-1,3,-3,-4,1,0,0
1509765215358880,-2,2,5,7,9,0,-1,-1
1509765215358880,-3,-1,-8,-2,-2,-3,-1,-1
1509765215379894,2,-2,-12,3,-3,-3,-3,0
1509765215379894,-5,-6,27,-7,-3,-4,-2,-3
1509765215381897,-3,-1,-16,-6,-4,-1,0,0
1509765215381897,3,3,6,1,-1,-2,-2,-1
1509765215393904,-1,-2,-2,2,1,1,0,0
1509765215393904,0,-9,-14,0,0,1,-1,-1
1509765215402929,-1,0,3,-2,-2,-2,-3,-1
1509765215402929,-1,0,1,-1,1,0,0,0
1509765215424926,5,1,5,0,0,3,2,-1
1509765215424926,-7,-3,-7,-1,0,-5,-3,0
1509765215426929,-5,-1,1,-1,-2,0,1,-1
1509765215426929,-4,-1,0,-2,-3,-3,-2,-2
1509765215441448,-4,-8,-2,-2,-3,-4,-2,-2
1509765215441448,3,3,5,-4,0,0,1,1
1509765215442951,-1,0,-9,-5,-4,-3,-3,-2
1509765215442951,0,-3,0,2,-1,-4,-4,-2
1509765215455479,0,-7,-7,10,9,3,0,-1
1509765215455479,0,-8,6,-3,-1,-2,0,-2
1509765215461500,0,6,1,0,-4,-1,0,1
1509765215461500,0,-1,9,4,-2,-2,-3,-3
1509765215477494,-1,-4,-18,-21,-3,-1,0,-1
1509765215477494,2,-2,-8,2,1,1,-1,1
1509765215479496,-2,-3,-1,0,2,-2,-1,-1
1509765215479496,4,-1,-2,7,-1,-6,-5,-1
1509765215499513,1,-2,6,3,-2,2,0,1
1509765215499513,-2,3,5,-2,1,2,-1,0
1509765215501511,-1,-1,2,0,-3,1,0,-1
1509765215501511,-2,-3,-13,-8,-1,0,-2,0
1509765215513533,0,-1,-4,-4,-2,1,1,0
1509765215513533,-1,-2,-2,-4,0,-1,0,-1
1509765215552596,1,-1,4,6,0,-3,-2,-2
1509765215552596,0,0,8,0,-1,0,1,0
1509765215553579,-3,-4,-2,-5,-3,-1,-2,-2
1509765215553579,1,1,0,3,-1,-1,-1,0
1509765215555580,1,4,0,0,1,0,-2,0
1509765215555580,1,6,-3,-2,1,1,-1,-1
1509765215560596,-1,0,7,0,-3,-4,-2,-2
1509765215560596,-2,-2,1,5,1,-2,0,-1
1509765215562583,0,-6,-25,-9,-4,-5,-2,-3
1509765215562583,-3,-2,1,-4,-2,-3,-3,-1
1509765215573597,1,5,3,2,-3,-1,-2,1
1509765215573597,8,-2,4,5,4,4,2,-2
1509765215582599,-2,2,6,-1,-2,-7,-1,-2
1509765215582599,-1,3,-13,-4,-3,-3,-1,-1
1509765215597610,-2,-2,16,5,2,-2,0,-1
1509765215597610,0,-5,-6,-7,-4,-4,-1,-1
1509765215603613,-2,-3,-5,0,-2,-1,0,0
1509765215603613,7,-5,-7,-6,-1,2,-1,-2
1509765215619626,-3,-3,1,3,-3,-4,-2,-1
1509765215619626,-16,-10,1,3,-1,-1,0,-1
1509765215625647,5,10,-5,-6,-2,1,0,1
1509765215625647,0,1,5,0,0,-1,1,1
1509765215633634,0,-4,-2,-2,0,-2,-2,-1
1509765215633634,-5,-1,-4,-5,-2,-1,-1,-1
1509765215648655,-2,-5,1,0,-2,-1,-2,0
1509765215648655,-5,3,-8,-4,-1,2,0,-3
1509765215657691,0,-5,-2,0,-1,-3,-1,-1
1509765215657691,6,0,6,-1,-2,-2,-1,0
1509765215658674,-5,1,-5,0,1,2,-2,-2
1509765215658674,-2,1,-2,0,-1,-1,-1,0
1509765215679688,-5,-3,-4,-1,-1,-1,-1,-2
1509765215679688,1,0,-4,0,-3,-1,-1,0
1509765215681694,-1,3,5,-1,1,-1,-2,-1
1509765215681694,-11,3,7,13,-2,3,0,0
1509765215693698,1,-6,-5,-21,3,5,2,1
1509765215693698,1,-4,-7,-2,-3,-1,2,0
1509765215702705,-3,2,1,0,0,4,0,0
1509765215702705,-1,-1,-7,-10,-3,-5,-1,-4
1509765215717715,3,1,5,14,-1,-3,-1,0
1509765215717715,2,-5,-4,-5,3,1,0,-1
1509765215723731,-6,9,8,-4,-6,-2,-2,-4
1509765215723731,7,-17,-1,-4,0,-1,-1,1
1509765215747771,-6,2,10,5,0,-1,-1,-2
1509765215747771,-3,-3,-12,1,1,-2,-1,-2
1509765215749271,1,-1,5,2,-2,-2,0,-2
1509765215749271,1,1,-4,-1,0,0,-1,0
1509765215762444,-3,-2,-1,-6,-2,0,-1,-2
1509765215762444,-2,3,9,6,-1,-1,-1,-2
1509765215764437,0,0,2,-2,-3,0,0,-1
1509765215764437,-2,3,-2,-3,1,-1,0,0
1509765215778455,0,-16,-6,1,0,-1,1,0
1509765215778455,-13,-2,-1,1,-1,0,0,-2
1509765215779447,6,7,-6,-3,-3,-1,-3,-2
1509765215779447,-2,-1,1,-5,-4,-7,-5,-2
1509765215800464,-1,-14,-11,4,-6,-5,-4,-1
1509765215800464,0,-4,5,-5,3,-1,0,0
1509765215801462,2,-12,-8,-3,0,-1,0,-1
1509765215801462,-9,3,4,6,-2,0,0,-2
1509765215813492,0,1,-1,-7,-3,5,1,0
1509765215813492,3,5,2,10,-4,-3,-2,-1
1509765215822487,-3,4,0,-5,0,-7,-3,-3
1509765215822487,3,-3,-1,-1,1,2,-1,0
1509765215837000,8,0,5,-5,-2,-3,0,2
1509765215837000,-2,-4,-15,-8,-2,3,-1,0
1509765215860576,-1,3,1,2,-1,0,-1,-2
1509765215860576,-1,-6,13,2,1,-2,-2,-1
1509765215883613,-2,-1,-15,-5,0,-1,0,-1
1509765215883613,7,1,5,1,0,-2,-1,0
1509765215885598,-15,-5,-8,-3,-3,-3,-3,-2
1509765215885598,2,13,4,-1,-1,6,1,-2
1509765215898606,-4,5,1,3,0,-4,-5,-3
1509765215898606,3,-12,-9,-13,-1,-4,1,-1
1509765215900605,0,8,11,16,-2,5,1,-1
1509765215900605,-8,-13,-15,-12,-5,-3,-2,-2
1509765215900605,-3,-5,-4,4,7,0,0,0
1509765215900605,-3,-5,-4,0,1,1,1,-1
1509765215904607,-2,-6,3,4,-3,-4,-1,-1
1509765215904607,-2,-5,3,-3,-6,-2,-3,-2
1509765215919619,1,1,4,-4,-2,-1,1,-1
1509765215919619,1,-4,-4,3,-1,-4,-2,-1
1509765215921620,-6,-22,-7,-13,-3,-1,-2,-3
1509765215921620,0,31,5,3,1,-2,-2,-2
1509765215942639,6,-3,1,-2,-3,-2,-2,-2
1509765215942639,-6,10,4,1,-2,2,2,-1
1509765215944141,2,10,-4,-2,1,0,-1,1
1509765215944141,-2,-16,-6,0,1,-1,-2,0
1509765215964797,1,-13,-5,2,-2,2,0,-1
1509765215964797,-10,3,0,-2,-2,-2,-2,0
1509765215966809,2,0,-5,-4,-1,0,-2,1
1509765215966809,2,-12,-1,2,1,-8,-3,0
1509765215979803,-11,12,-4,-2,-3,1,1,-2
1509765215979803,-1,-5,5,3,-2,-1,-3,-3
1509765215981808,0,5,-7,-12,6,2,2,-2
1509765215981808,1,-4,0,3,1,1,-1,-1
1509765216002820,-1,0,-1,-2,-1,1,-1,-1
1509765216002820,-2,-5,0,6,0,0,0,0
1509765216003821,4,5,3,3,-1,-1,-1,-1
1509765216003821,2,1,2,1,-1,1,1,-1
1509765216016832,-2,0,10,-1,-1,-3,0,0
1509765216016832,-3,-9,-26,-6,-4,0,-2,-2
1509765216023834,-9,-6,13,3,-4,-3,-2,0
1509765216023834,-14,4,-4,-1,2,0,1,-2
1509765216039348,-1,-7,-11,1,-1,-3,-1,-1
1509765216039348,-3,9,7,-1,0,-2,1,0
1509765216053874,-3,0,-6,-4,-3,-3,-2,-3
1509765216053874,1,-4,-9,1,0,5,3,1
1509765216070886,-1,2,-6,-1,-1,-4,-7,-2
1509765216070886,-1,-5,13,0,-1,1,4,-2
1509765216083895,2,8,-8,-2,-4,-3,-5,1
1509765216083895,1,-1,-3,-3,-1,2,0,1
1509765216092901,-1,-2,-1,-4,-5,1,0,-1
1509765216092901,4,-5,5,-1,3,-1,-2,-1
1509765216094904,1,5,6,3,-2,1,1,-1
1509765216094904,1,-1,-2,-2,-1,-1,-3,-1
1509765216099906,-3,-6,-5,0,2,1,1,-1
1509765216099906,-2,-3,1,-2,-4,-6,-4,-2
1509765216101909,2,3,-1,-5,-5,-1,0,-1
1509765216101909,-3,-2,-7,0,1,-3,0,-1
1509765216129929,-2,-3,12,16,2,0,0,0
1509765216129929,0,-4,-15,-17,1,0,1,0
1509765216137941,0,1,-20,-1,-2,-2,-2,-2
1509765216137941,-1,-2,7,-5,-5,-1,2,-1
1509765216138463,0,0,9,1,-1,-3,-6,-1
1509765216138463,1,-1,-6,2,0,7,-2,1
1509765216151463,3,4,0,-2,2,-7,0,1
1509765216151463,-1,-8,-29,-7,-1,18,12,0
1509765216166149,-6,-13,-18,-12,-4,-40,-28,-9
1509765216166149,-1,0,21,5,-4,-13,-17,-4
1509765216184162,5,-2,19,1,-1,4,-1,0
1509765216184162,5,6,11,6,1,8,4,2
1509765216185161,2,0,-16,-4,2,3,2,0
1509765216185161,-3,-3,-14,-5,0,-3,1,-2
1509765216188182,-1,2,-7,-1,-2,1,-4,-1
1509765216188182,2,-2,5,-1,2,1,-2,-1
1509765216197170,-7,-8,18,0,-2,9,6,-1
1509765216197170,3,-7,-12,-4,-3,-5,1,-2
1509765216203174,-2,4,8,2,1,-1,3,-1
1509765216203174,0,-1,0,-2,-1,-7,-5,-2
1509765216220187,-3,0,-7,-2,0,-1,0,-1
1509765216220187,-3,0,13,3,-3,5,3,-2
1509765216221187,-2,1,-15,-1,-4,-1,-2,-1
1509765216221187,-7,-6,-7,-2,-3,-15,-9,-3
1509765216242724,5,-1,5,2,-2,7,2,1
1509765216242724,-10,4,8,-1,0,0,2,1
1509765216244225,-2,4,-3,-4,-3,-3,-4,-2
1509765216244225,3,2,9,2,-2,-8,-7,0
1509765216256685,-1,2,5,1,1,8,8,0
1509765216256685,7,-4,-4,0,-1,2,-2,-1
1509765216263693,6,-3,-21,-3,-1,-7,-2,-3
1509765216263693,-6,-2,2,-1,0,-2,-4,-2
1509765216279724,1,4,3,-2,0,4,2,0
1509765216279724,-5,-2,8,4,0,1,0,0
1509765216281703,0,2,-1,-1,-2,-2,-4,-2
1509765216281703,-1,-7,0,-1,-1,-2,-2,-1
1509765216302717,0,-4,-2,-3,-2,1,-1,0
1509765216302717,3,-2,-8,-2,-2,-3,-3,-3
1509765216303718,-8,2,4,2,-1,1,1,-1
1509765216303718,-10,-11,3,-3,1,-3,-4,-4
1509765216324751,6,12,1,-2,-3,-6,0,-1
1509765216324751,0,0,-4,-8,-3,-4,0,-1
1509765216326752,-4,2,8,11,-4,0,-1,-1
1509765216326752,8,-13,-10,-7,7,0,-3,-1
1509765216347751,-8,-34,-7,-2,-1,-2,0,0
1509765216347751,3,36,-15,-10,-5,-1,0,-3
1509765216349255,-5,-1,7,-5,-6,-2,-1,-2
1509765216349255,9,16,7,8,-1,0,-2,1
1509765216393798,0,-18,-20,-10,-1,0,0,0
1509765216393798,-4,-12,10,10,1,3,2,-1
1509765216395800,-7,5,-4,1,1,-4,-4,-3
1509765216395800,2,5,3,-3,-3,-3,0,1
1509765216395800,0,13,3,0,0,1,1,0
1509765216395800,0,-5,-7,-2,-3,-2,-2,-1
1509765216407794,-5,7,6,-2,0,1,2,-1
1509765216407794,-4,-5,4,0,6,2,-2,-1
1509765216444351,2,6,5,20,0,-2,-1,-2
1509765216444351,-5,-10,-18,-20,0,-3,-3,-1
1509765216461863,5,-1,7,12,2,2,1,1
1509765216461863,1,3,-9,-32,-12,-6,-4,0
1509765216462863,-1,1,11,17,-3,-2,-2,-1
1509765216462863,-6,-9,-11,0,9,5,0,-2
1509765216473872,0,1,-1,-7,-2,-1,-1,-1
1509765216473872,-4,-4,-7,3,-5,-3,-1,-2
1509765216474872,-4,6,-12,-17,0,0,0,0
1509765216474872,-2,10,16,8,-2,-2,-3,-2
1509765216489895,0,8,5,-3,1,0,2,-1
1509765216489895,-6,-10,-2,-4,-2,-2,-1,0
1509765216491883,0,-1,1,-1,-4,-5,-1,0
1509765216491883,3,-9,-10,1,-4,-1,-2,0
1509765216495886,-1,-3,4,-2,2,4,3,0
1509765216495886,-2,-1,2,-5,-4,-3,1,-1
1509765216512911,2,2,6,8,0,2,-3,-1
1509765216512911,1,-11,-11,3,-1,-2,-2,0
1509765216519916,-4,5,-1,-1,-1,1,-2,-2
1509765216519916,2,-1,1,-22,-10,-2,-3,-1
1509765216525917,2,-2,0,20,6,1,-1,-1
1509765216525917,-3,-2,-3,2,2,2,0,-1
1509765216542448,-2,-2,0,0,0,-1,-2,-2
1509765216542448,-3,-4,-11,-8,-4,-2,0,0
1509765216544452,0,-1,10,-6,-6,0,-1,-1
1509765216544452,1,3,-3,-4,-2,3,0,-1
1509765216556501,0,1,2,-4,0,0,-1,0
1509765216556501,-1,5,12,10,1,-3,-2,-2
1509765216582546,-2,-7,-25,-10,-3,-1,-2,-1
1509765216582546,4,24,10,7,4,0,0,0
1509765216582546,6,-13,0,11,-5,-2,-2,0
1509765216582546,-15,1,-8,-16,0,-1,-1,-2
1509765216586571,1,-1,-5,-5,0,-2,-1,-2
1509765216586571,-7,-4,3,-8,-2,-2,-2,-1
1509765216601579,-1,4,-7,2,0,-1,-2,-1
1509765216601579,1,-8,3,9,1,0,0,0
1509765216602572,7,0,4,-4,-1,-2,-1,-2
1509765216602572,-3,-2,-1,4,-4,-1,0,0
1509765216624604,-2,-6,-6,-14,-2,-5,-1,-2
1509765216624604,-3,-6,5,19,2,-4,0,-1
1509765216624604,0,0,-9,-11,-4,-2,-2,-2
1509765216624604,3,-5,2,4,-2,0,0,-1
